values,
1276.156913,1
1309.851499,2
1354.133932,3
1411.634742,4
1484.44304,5
1573.098181,6
1672.581712,7
1774.263025,8
1866.283218,9
1936.918873,10
1977.59295,11
1984.542229,12
1961.251004,13
1917.366407,14
1865.971212,15
1821.505708,16
1795.989515,17
1795.660495,18
1819.718474,19
1861.863636,20
1910.582576,21
1953.771368,22
1980.897826,23
1985.529891,24
1967.865241,25
1933.247942,26
1890.761657,27
1866.730827,28
1863.508814,29
1902.69785,30
1986.076448,31
2109.031946,32
2262.109639,33
2429.581624,34
2593.111164,35
2664.352061,36
2771.110539,37
2835.042768,38
2855.130162,39
2838.278001,40
2796.326381,41
2742.673096,42
2690.943877,43
2651.442371,44
2629.920602,45
2626.992434,46
2636.968498,47
2654.549802,48
2671.112069,49
2681.142314,50
2682.070395,51
2675.276634,52
2664.298422,53
2653.817094,54
2649.371186,55
2651.533858,56
2660.802737,57
2672.175897,58
2678.783892,59
2673.610039,60
2650.047603,61
2604.875539,62
2538.685462,63
2456.885591,64
2366.883153,65
2278.468636,66
2200.068325,67
2138.164608,68
2095.215258,69
2070.73224,70
2059.281215,71
2054.643604,72
2049.138453,73
2036.269274,74
2007.623381,75
1962.051897,76
1898.940056,77
1818.421858,78
1726.323481,79
1628.332734,80
1530.720233,81
1439.615511,82
1361.699823,83
1302.341586,84
1265.221383,85
1252.432943,86
1264.134593,87
1296.582958,88
1344.866022,89
1401.766124,90
1458.830935,91
1508.097081,92
1543.862511,93
1562.116455,94
1562.685944,95
1547.587878,96
1521.076208,97
1488.391538,98
1455.267069,99
1425.153356,100
1401.744584,101
1386.455051,102
1378.491001,103
1376.666863,104
1378.848941,105
1382.047855,106
1385.018652,107
1387.118998,108
1388.448377,109
1392.109781,110
1400.206774,111
1416.441676,112
1443.543892,113
1484.09306,114
1538.224488,115
1604.687637,116
1680.297576,117
1760.629365,118
1836.722812,119
1906.088212,120
1959.60646,121
1995.1421,122
2011.437433,123
2010.456573,124
1997.221567,125
1978.769451,126
1963.00768,127
1956.231171,128
1963.595333,129
1986.861146,130
2024.462766,131
2073.230103,132
2127.816312,133
2182.240532,134
2231.489012,135
2272.67635,136
2304.048039,137
2326.723669,138
2342.787917,139
2354.765326,140
2364.975237,141
2374.657862,142
2384.326311,143
2394.227085,144
2332.843579,145
2339.545488,146
2347.296459,147
2357.891671,148
2372.535074,149
2393.312205,150
2419.890152,151
2451.975026,152
2486.627322,153
2520.921048,154
2551.269199,155
2574.741824,156
2589.975821,157
2596.210228,158
2595.60841,159
2590.404779,160
2582.665684,161
2574.053859,162
2564.491428,163
2552.298336,164
2534.273466,165
2506.367877,166
2466.069051,167
2410.994891,168
2342.868503,169
2264.840784,170
2182.949989,171
2104.315448,172
2036.121021,173
1984.400831,174
1952.737029,175
1941.494095,176
1948.85224,177
1969.229628,178
1996.779934,179
2025.47959,180
2049.441351,181
2065.155356,182
2069.981395,183
2064.072287,184
2048.015407,185
2023.003757,186
1991.876101,187
1955.936082,188
1916.335741,189
1873.999453,190
1829.479219,191
1782.192785,192
1732.778105,193
1681.431132,194
1629.430278,195
1577.53677,196
1528.838725,197
1484.411777,198
1446.302643,199
1416.192331,200
1394.376368,201
1381.261723,202
1376.51541,203
1379.50478,204
1389.211074,205
1404.248339,206
1423.150098,207
1443.972555,208
1466.520676,209
1489.140378,210
1511.899175,211
1535.157022,212
1559.454227,213
1585.543742,214
1614.199243,215
1645.189631,216
1677.866611,217
1710.403183,218
1741.003002,219
1767.736331,220
1788.780376,221
1803.163393,222
1809.660448,223
1809.788438,224
1803.948805,225
1794.282247,226
1783.688239,227
1774.254679,228
1766.898292,229
1764.464018,230
1766.318653,231
1774.347594,232
1787.881668,233
1806.776214,234
1830.492332,235
1857.234521,236
1885.439919,237
1914.510786,238
1943.545462,239
1973.298298,240
2004.357162,241
2038.568167,242
2076.391633,243
2119.625976,244
2168.218107,245
2221.818728,246
2287.975465,247
2359.453802,248
2440.343855,249
2497.004533,250
2519.30233,251
2505.607476,252
2453.686992,253
2363.48322,254
2239.261902,255
2091.248391,256
1936.288971,257
1791.615139,258
1674.432324,259
1597.919739,260
1566.960146,261
1578.604802,262
1623.633523,263
1687.398649,264
1755.380073,265
1819.304902,266
1869.149752,267
1909.058026,268
1943.341132,269
1981.321257,270
2031.991011,271
2101.668611,272
2191.838732,273
2297.286945,274
2407.076328,275
2507.478575,276
2585.28834,277
2631.020046,278
2640.872712,279
2619.832663,280
2577.869539,281
2530.472262,282
2492.016888,283
2476.558003,284
2489.966009,285
2532.750835,286
2596.371797,287
2670.084279,288
2738.332334,289
2788.930669,290
2813.441036,291
2810.30884,292
2741.877661,293
2700.780199,294
2656.904092,295
2624.428192,296
2611.126069,297
2622.418315,298
2654.751306,299
2701.365511,300
2749.964286,301
2787.875113,302
2805.044016,303
2795.036691,304
2758.274231,305
2700.362203,306
2629.859603,307
2556.654014,308
2490.026394,309
2435.15519,310
2393.70427,311
2362.466379,312
2335.562787,313
2306.320245,314
2268.323128,315
2219.507868,316
2161.31115,317
2099.104909,318
2040.37623,319
1992.199199,320
1951.900767,321
1927.385076,322
1906.60139,323
1885.226094,324
1855.505453,325
1811.160331,326
1749.69648,327
1673.727107,328
1597.637622,329
1518.086453,330
1453.447886,331
1413.026694,332
1400.471037,333
1414.673298,334
1449.562309,335
1494.405538,336
1540.354312,337
1578.316006,338
1603.855726,339
1617.522307,340
1629.376233,341
1646.929349,342
1683.275821,343
1742.803252,344
1823.064568,345
1919.376499,346
2019.526014,347
2109.489105,348
2174.894563,349
2205.456158,350
2196.535339,351
2151.860993,352
2081.60002,353
1976.927666,354
1901.998869,355
1849.647337,356
1830.300254,357
1846.859896,358
1894.726945,359
1963.946782,360
2041.399221,361
2115.223489,362
2176.161664,363
2221.022103,364
2250.902978,365
2272.155053,366
2291.874201,367
2317.786193,368
2354.262409,369
2401.374868,370
2456.227113,371
2510.756526,372
2557.397713,373
2588.89096,374
2601.268986,375
2595.15386,376
2575.286452,377
2549.709644,378
2528.434132,379
2520.950351,380
2533.25461,381
2569.049363,382
2625.441321,383
2695.662111,384
2771.157475,385
2840.169074,386
2892.119581,387
2919.800771,388
2900.546212,389
2844.989179,390
2737.65249,391
2587.826192,392
2405.199123,393
2203.078582,394
1996.641795,395
1802.307345,396
1636.217995,397
1510.713444,398
1433.221836,399
1403.749844,400
1416.528182,401
1458.89127,402
1515.168477,403
1570.798195,404
1612.995669,405
1635.380564,406
1637.57508,407
1624.568718,408
1604.814028,409
1587.758379,410
1580.999215,411
1588.957826,412
1611.477479,413
1644.267605,414
1679.725507,415
1709.570658,416
1726.433094,417
1726.426608,418
1710.134568,419
1682.224544,420
1650.259294,421
1622.879401,422
1607.967709,423
1609.809876,424
1629.137775,425
1662.930719,426
1704.938961,427
1747.412894,428
1783.104899,429
1806.931752,430
1816.790185,431
1816.327575,432
1808.132773,433
1801.201146,434
1801.704258,435
1814.83204,436
1842.424288,437
1884.053917,438
1935.493335,439
1989.997601,440
2040.807503,441
2081.80264,442
2108.714712,443
2120.251877,444
2119.135226,445
2108.028818,446
2092.616529,447
2076.643651,448
2063.372768,449
2053.445602,450
2046.81745,451
2041.958432,452
2037.295499,453
2031.483133,454
2025.161241,455
2020.605404,456
2021.629935,457
2033.643023,458
2059.408713,459
2043.687288,460
2101.149055,461
2171.183354,462
2247.632943,463
2322.908997,464
2389.956244,465
2443.095964,466
2479.804501,467
2500.920435,468
2510.171277,469
2512.608725,470
2515.290935,471
2522.973857,472
2540.011774,473
2566.56934,474
2601.79623,475
2641.221065,476
2679.014115,477
2710.142897,478
2730.647337,479
2738.934782,480
2736.547094,481
2725.50194,482
2710.080591,483
2693.039941,484
2676.581135,485
2662.882396,486
2652.95623,487
2647.213109,488
2622.573248,489
2591.133869,490
2528.475084,491
2434.414684,492
2310.847721,493
2161.673824,494
1995.425532,495
1823.558478,496
1660.905004,497
1521.883463,498
1418.643711,499
1358.885706,500
1343.899055,501
1368.239929,502
1422.598225,503
1493.601426,504
1568.578377,505
1636.485169,506
1691.453325,507
1731.670666,508
1758.58856,509
1777.485166,510
1793.634359,511
1811.250201,512
1832.842322,513
1857.645397,514
1883.406523,515
1905.734175,516
1919.914918,517
1922.81938,518
1913.511155,519
1893.554392,520
1866.915622,521
1839.768707,522
1818.058794,523
1807.166895,524
1810.032865,525
1826.478778,526
1853.653254,527
1886.0361,528
1917.451246,529
1942.012704,530
1957.054215,531
1965.34873,532
1965.758059,533
1966.923542,534
1972.494487,535
1986.290159,536
2010.254793,537
2042.863922,538
2079.745464,539
2114.577381,540
2139.604766,541
2150.978757,542
2146.333541,543
2129.615235,544
2106.776325,545
2086.344962,546
2076.591586,547
2082.454506,548
2105.095996,549
2141.619332,550
2184.225171,551
2223.23422,552
2248.365332,553
2252.383278,554
2231.421418,555
2188.270923,556
2138.953234,557
2090.236853,558
2064.259935,559
2070.657446,560
2115.678154,561
2199.806418,562
2315.43457,563
2449.636698,564
2531.648632,565
2618.346039,566
2635.820903,567
2577.674987,568
2445.482343,569
2251.798722,570
2015.640738,571
1769.599151,572
1546.280377,573
1374.68497,574
1274.634239,575
1252.299715,576
1299.871414,577
1397.656718,578
1519.459869,579
1638.281828,580
1732.749631,581
1791.115222,582
1813.196966,583
1807.585297,584
1790.11019,585
1777.512168,586
1794.417569,587
1839.78393,588
1923.404196,589
2034.150505,590
2155.251453,591
2268.151614,592
2355.840774,593
2405.316341,594
2411.250162,595
2375.663504,596
2307.366098,597
2219.348821,598
2126.179243,599
2039.255492,600
1967.326548,601
1912.424408,602
1872.334404,603
1839.957373,604
1803.708715,605
1759.232944,606
1698.941268,607
1623.883238,608
1539.776345,609
1455.700087,610
1381.850678,611
1327.98579,612
1301.494068,613
1305.510308,614
1338.52342,615
1394.435569,616
1464.224044,617
1538.823537,618
1608.518184,619
1667.622931,620
1712.582216,621
1743.669689,622
1762.464521,623
1773.281744,624
1779.002281,625
1783.073853,626
1786.376709,627
1788.467566,628
1788.599398,629
1801.133215,630
1794.110506,631
1784.898854,632
1774.823903,633
1766.654959,634
1761.772953,635
1763.279957,636
1772.772318,637
1791.621138,638
1820.209024,639
1858.30922,640
1905.086243,641
1958.979719,642
2022.471785,643
2074.034038,644
2114.533031,645
2142.286607,646
2154.528222,647
2149.375712,648
2128.05741,649
2094.546429,650
2056.113896,651
2022.729216,652
2002.851699,653
2005.668813,654
2034.628805,655
2110.133566,656
2185.517253,657
2273.414251,658
2363.195828,659
2443.746256,660
2507.441684,661
2549.46036,662
2570.84587,663
2575.969537,664
2573.771659,665
2573.447864,666
2582.955848,667
2607.889365,668
2648.638581,669
2703.367632,670
2765.874148,671
2795.620251,672
2851.478584,673
2891.644441,674
2913.130745,675
2913.955706,676
2897.740142,677
2868.711918,678
2833.38983,679
2796.270086,680
2760.250654,681
2727.574331,682
2695.667554,683
2663.890791,684
2628.020064,685
2585.536606,686
2535.447024,687
2477.195597,688
2412.939559,689
2346.19953,690
2281.284938,691
2222.947548,692
2175.87447,693
2143.649006,694
2127.497545,695
2126.726659,696
2138.303974,697
2157.710083,698
2178.656716,699
2195.677292,700
2204.155287,701
2199.205634,702
2180.251751,703
2147.544063,704
2103.721698,705
2052.982466,706
2000.658934,707
1950.792803,708
1907.237822,709
1872.482363,710
1846.378447,711
1827.458487,712
1813.344316,713
1801.304742,714
1788.893809,715
1775.062552,716
1759.990015,717
1744.580473,718
1730.448188,719
1719.126413,720
1711.665549,721
1707.99265,722
1706.118117,723
1704.06787,724
1699.055025,725
1688.9409,726
1672.390269,727
1650.391075,728
1624.476283,729
1597.805308,730
1574.756664,731
1558.944469,732
1553.445856,733
1559.695701,734
1577.232415,735
1603.073688,736
1634.18331,737
1665.614358,738
1693.514724,739
1716.039577,740
1732.064567,741
1743.174532,742
1752.491527,743
1764.058896,744
1782.112115,745
1809.747636,746
1848.295788,747
1896.938343,748
1952.12581,749
2008.648017,750
2060.39646,751
2100.631881,752
2123.676309,753
2125.777416,754
2106.811339,755
2071.682787,756
2023.569842,757
1972.484381,758
1924.98273,759
1886.118865,760
1860.150497,761
1848.108081,762
1848.891077,763
1854.00016,764
1859.510715,765
1860.135015,766
1853.320409,767
1838.251906,768
1817.579752,769
1795.592257,770
1778.608209,771
1772.116849,772
1779.394771,773
1801.242679,774
1799.988392,775
1836.287123,776
1871.131753,777
1897.383676,778
1911.125097,779
1910.812065,780
1898.634871,781
1877.993762,782
1854.680706,783
1834.729034,784
1822.462429,785
1820.23008,786
1827.278654,787
1840.445052,788
1854.376227,789
1863.65342,790
1863.543482,791
1851.787486,792
1828.338215,793
1796.538125,794
1760.838929,795
1726.827445,796
1699.464498,797
1681.874198,798
1675.465083,799
1679.07807,800
1690.697035,801
1707.21016,802
1724.81576,803
1741.101014,804
1754.925296,805
1766.660181,806
1778.81514,807
1795.108044,808
1819.400121,809
1854.691934,810
1902.956611,811
1964.137279,812
2036.22318,813
2109.174068,814
2181.148028,815
2240.011308,816
2279.640038,817
2296.168348,818
2287.224432,819
2253.064911,820
2198.200953,821
2129.008305,822
2053.507942,823
1980.15726,824
1916.244451,825
1866.248302,826
1833.017384,827
1816.335388,828
1814.585678,829
1825.435128,830
1845.272639,831
1871.782997,832
1902.799113,833
1937.732701,834
1975.615967,835
2017.323645,836
2061.384418,837
2107.118781,838
2151.851931,839
2191.942148,840
2223.691657,841
2243.184946,842
2247.792672,843
2235.964647,844
2209.75975,845
2172.234028,846
2128.886991,847
2086.713589,848
2051.845401,849
2033.125087,850
2032.145103,851
2053.061021,852
2094.084979,853
2150.856421,854
2216.600685,855
2283.86683,856
2344.763255,857
2393.764177,858
2427.137322,859
2444.110619,860
2446.486969,861
2437.867343,862
2422.200449,863
2404.278435,864
2388.071945,865
2376.444542,866
2371.646248,867
2374.033596,868
2384.117413,869
2401.202636,870
2425.051491,871
2455.227226,872
2491.133528,873
2532.683127,874
2580.03857,875
2631.773431,876
2686.571549,877
2743.585755,878
2799.515828,879
2852.807004,880
2901.052582,881
2949.578062,882
2993.433793,883
3010.851307,884
3059.458014,885
3111.014028,886
3164.969022,887
3220.248624,888
3273.631095,889
3320.890391,890
3356.483866,891
3375.709414,892
3375.069716,893
3353.069996,894
3311.026868,895
3253.996846,896
3186.420614,897
3117.89724,898
3053.885695,899
3000.759664,900
2962.858502,901
2939.879755,902
2929.294695,903
2924.910141,904
2917.702906,905
2899.771538,906
2862.942462,907
2802.453795,908
2718.080146,909
2612.849876,910
2494.084958,911
2371.318948,912
2255.091289,913
2156.146762,914
2081.588842,915
2035.540966,916
2017.513572,917
2023.10478,918
2045.349668,919
2076.195017,920
2107.316102,921
2133.694854,922
2152.287217,923
2162.090825,924
2164.176655,925
2161.223349,926
2154.632059,927
2144.94082,928
2132.442624,929
2113.64691,930
2087.666212,931
2051.27835,932
2003.880545,933
1946.28491,934
1882.698566,935
1817.857582,936
1758.431952,937
1713.630849,938
1681.550202,939
1667.436078,940
1671.360848,941
1690.135535,942
1719.413365,943
1770.402231,944
1807.101778,945
1842.173714,946
1875.073767,947
1905.736872,948
1936.958735,949
1970.473586,950
2007.439102,951
2048.09846,952
2090.459171,953
2131.463647,954
2167.271542,955
2194.172627,956
2210.690863,957
2215.750555,958
2212.062954,959
2203.665224,960
2196.423302,961
2196.023122,962
2206.964175,963
2232.130328,964
2270.075107,965
2317.636585,966
2367.291699,967
2412.225981,968
2444.378587,969
2456.733095,970
2445.358149,971
2408.966552,972
2350.725956,973
2276.745162,974
2196.484269,975
2121.077108,976
2060.630185,977
2023.539324,978
2014.703347,979
2035.170311,980
2081.755852,981
2147.852195,982
2224.701242,983
2303.039324,984
2373.769319,985
2431.804664,986
2473.688567,987
2501.923837,988
2521.073602,989
2539.69665,990
2564.702191,991
2603.229094,992
2658.147893,993
2728.024718,994
2808.754006,995
2892.558867,996
2970.549608,997
3034.427485,998
3053.089763,999
3074.540521,1000
3075.706282,1001
3062.651222,1002
3043.262995,1003
3027.304401,1004
3017.625139,1005
3019.871513,1006
3029.179717,1007
3040.106267,1008
3044.072632,1009
3033.096551,1010
3000.96035,1011
2945.598904,1012
2871.338477,1013
2785.009011,1014
2697.824941,1015
2620.142869,1016
2560.768288,1017
2524.431087,1018
2510.931189,1019
2515.599103,1020
2530.317844,1021
2545.508011,1022
2553.050762,1023
2547.37475,1024
2527.132064,1025
2495.067502,1026
2456.704898,1027
2417.690933,1028
2383.161977,1029
2356.900702,1030
2337.802708,1031
2324.651471,1032
2313.624067,1033
2300.628056,1034
2282.840974,1035
2258.639887,1036
2228.74284,1037
2195.347954,1038
2160.594268,1039
2126.882251,1040
2095.75017,1041
2066.296135,1042
2037.472629,1043
2007.318617,1044
1972.646814,1045
1932.743738,1046
1888.153299,1047
1841.776712,1048
1798.766339,1049
1764.832762,1050
1741.103757,1051
1732.803866,1052
1737.196047,1053
1751.905776,1054
1773.489881,1055
1797.337827,1056
1819.619504,1057
1836.384391,1058
1847.164494,1059
1853.246912,1060
1856.490774,1061
1860.56295,1062
1868.14648,1063
1913.945004,1064
1930.301211,1065
1948.156214,1066
1963.415634,1067
1972.659877,1068
1973.554382,1069
1965.8054,1070
1951.34676,1071
1934.98051,1072
1921.949845,1073
1917.758961,1074
1926.713242,1075
1951.074697,1076
1989.469307,1077
2038.220171,1078
2091.186489,1079
2140.898315,1080
2179.448483,1081
2200.427258,1082
2199.804983,1083
2174.930619,1084
2126.578607,1085
2057.811029,1086
1972.880729,1087
1877.250883,1088
1776.833845,1089
1677.202627,1090
1582.93927,1091
1520.966048,1092
1483.080467,1093
1487.904089,1094
1554.76003,1095
1676.404661,1096
1848.702111,1097
2059.974686,1098
2291.975376,1099
2520.933053,1100
2722.442309,1101
2874.396805,1102
2961.465457,1103
2979.028401,1104
2931.486772,1105
2834.083361,1106
2707.844505,1107
2576.688814,1108
2461.662275,1109
2379.745908,1110
2338.57748,1111
2338.787355,1112
2373.718258,1113
2433.707441,1114
2505.612561,1115
2579.681039,1116
2646.244145,1117
2702.123446,1118
2746.244762,1119
2779.130799,1120
2805.194679,1121
2826.086689,1122
2843.724621,1123
2856.532268,1124
2862.911086,1125
2858.470843,1126
2840.113347,1127
2803.704046,1128
2749.41144,1129
2679.062208,1130
2596.434745,1131
2508.47237,1132
2422.172436,1133
2346.199082,1134
2287.266444,1135
2238.129683,1136
2207.7867,1137
2182.428098,1138
2158.440911,1139
2131.24353,1140
2096.062863,1141
2052.029582,1142
2001.008803,1143
1948.180231,1144
1901.035079,1145
1865.939663,1146
1847.100753,1147
1845.685659,1148
1856.88867,1149
1874.41269,1150
1889.940981,1151
1895.23757,1152
1885.249256,1153
1858.726616,1154
1817.460584,1155
1767.923674,1156
1717.492441,1157
1674.24571,1158
1643.43427,1159
1628.143021,1160
1627.947178,1161
1638.755317,1162
1655.978018,1163
1673.522352,1164
1686.820814,1165
1693.112647,1166
1692.156685,1167
1686.834028,1168
1680.626869,1169
1677.200261,1170
1680.040771,1171
1688.248757,1172
1700.561528,1173
1712.938286,1174
1721.690566,1175
1722.737183,1176
1713.704945,1177
1694.883272,1178
1668.548737,1179
1640.114055,1180
1615.641417,1181
1601.610282,1182
1602.645367,1183
1619.858632,1184
1650.46493,1185
1689.793024,1186
1729.664003,1187
1762.275203,1188
1781.449362,1189
1784.51466,1190
1772.156341,1191
1750.515215,1192
1728.063626,1193
1714.175638,1194
1718.042567,1195
1744.228585,1196
1792.881487,1197
1858.851102,1198
1966.964802,1199
2034.976751,1200
2085.849947,1201
2111.013942,1202
2106.577468,1203
2074.458787,1204
2022.084104,1205
1960.491444,1206
1901.364872,1207
1855.850406,1208
1830.717735,1209
1828.163718,1210
1844.358835,1211
1872.996354,1212
1904.63243,1213
1931.350398,1214
1946.5911,1215
1948.498107,1216
1938.022845,1217
1918.907086,1218
1896.421708,1219
1874.53862,1220
1855.843486,1221
1841.50165,1222
1829.159394,1223
1817.744989,1224
1805.499257,1225
1791.859945,1226
1778.4139,1227
1769.200669,1228
1768.563593,1229
1780.484742,1230
1808.674153,1231
1853.005303,1232
1910.757574,1233
1976.457257,1234
2043.271838,1235
2104.45014,1236
2154.150828,1237
2191.008591,1238
2215.136078,1239
2230.965495,1240
2243.443553,1241
2258.968,1242
2281.504729,1243
2313.536507,1244
2354.662144,1245
2401.709118,1246
2450.13645,1247
2495.61545,1248
2534.409491,1249
2565.494237,1250
2587.257945,1251
2601.800828,1252
2609.171682,1253
2608.847663,1254
2600.306037,1255
2581.802512,1256
2551.898717,1257
2510.234265,1258
2458.440468,1259
2400.684494,1260
2341.310196,1261
2286.49115,1262
2241.121138,1263
2207.023906,1264
2182.990599,1265
2163.966059,1266
2142.755222,1267
2111.794516,1268
2066.197908,1269
2003.513732,1270
1928.489936,1271
1848.891372,1272
1775.815034,1273
1719.759693,1274
1689.534223,1275
1687.136605,1276
1707.626514,1277
1741.437109,1278
1774.043771,1279
1792.582422,1280
1786.489665,1281
1751.96827,1282
1692.386602,1283
1617.035212,1284
1539.839015,1285
1475.975943,1286
1437.229466,1287
1428.758809,1288
1451.516054,1289
1520.933469,1290
1602.007992,1291
1709.701351,1292
1832.330833,1293
1961.878922,1294
2095.113529,1295
2228.117813,1296
2359.055355,1297
2483.161614,1298
2593.897035,1299
2684.374839,1300
2746.946436,1301
2777.637985,1302
2775.863458,1303
2745.699027,1304
2695.889552,1305
2637.535194,1306
2587.081504,1307
2553.133211,1308
2546.80774,1309
2570.046674,1310
2618.585766,1311
2684.404695,1312
2753.67155,1313
2813.728496,1314
2853.141508,1315
2864.499237,1316
2847.010973,1317
2805.461974,1318
2748.392362,1319
2686.959152,1320
2566.832977,1321
2522.572952,1322
2489.326777,1323
2463.954968,1324
2438.251281,1325
2403.547629,1326
2352.387898,1327
2280.864941,1328
2189.818304,1329
2086.90559,1330
1982.446041,1331
1890.119583,1332
1820.827345,1333
1781.873799,1334
1775.230585,1335
1795.389298,1336
1832.655686,1337
1867.385796,1338
1891.332894,1339
1887.205324,1340
1851.04151,1341
1784.262754,1342
1694.459856,1343
1594.149326,1344
1498.105029,1345
1420.609342,1346
1372.114851,1347
1356.145238,1348
1370.887827,1349
1407.678689,1350
1453.595648,1351
1496.421396,1352
1525.615272,1353
1534.356128,1354
1522.538488,1355
1493.578539,1356
1455.773378,1357
1418.617064,1358
1390.029291,1359
1375.545767,1360
1376.734653,1361
1390.42626,1362
1410.944898,1363
1431.811197,1364
1446.25097,1365
1450.268576,1366
1442.35085,1367
1424.380038,1368
1400.452189,1369
1376.639124,1370
1357.670457,1371
1347.630816,1372
1348.09052,1373
1357.312649,1374
1373.76267,1375
1393.768761,1376
1413.225216,1377
1429.511702,1378
1441.149467,1379
1448.00836,1380
1452.092683,1381
1457.501738,1382
1467.941985,1383
1487.458507,1384
1518.20703,1385
1560.867784,1386
1613.674193,1387
1673.767195,1388
1736.777862,1389
1797.73917,1390
1852.33064,1391
1897.10226,1392
1934.699228,1393
1962.864698,1394
1985.605771,1395
2007.120434,1396
2028.410058,1397
2051.875979,1398
2077.777565,1399
2105.914082,1400
2134.118865,1401
2160.153932,1402
2183.222606,1403
2203.797693,1404
2224.526587,1405
2248.48171,1406
2278.793453,1407
2317.288656,1408
2309.556218,1409
2361.35404,1410
2414.670428,1411
2463.407645,1412
2499.909578,1413
2518.713511,1414
2515.985018,1415
2491.522292,1416
2449.866145,1417
2397.759507,1418
2343.488752,1419
2296.491385,1420
2264.648057,1421
2253.244025,1422
2264.667145,1423
2297.710662,1424
2347.846223,1425
2409.438147,1426
2474.938409,1427
2537.346191,1428
2590.528639,1429
2630.03682,1430
2651.929426,1431
2656.574591,1432
2645.305578,1433
2620.99346,1434
2588.264547,1435
2551.668815,1436
2515.555539,1437
2484.007074,1438
2459.403166,1439
2442.309358,1440
2431.206391,1441
2422.351042,1442
2410.598682,1443
2390.48091,1444
2358.011903,1445
2311.24182,1446
2249.97837,1447
2177.676982,1448
2099.012503,1449
2019.263979,1450
1943.385049,1451
1875.585791,1452
1818.955391,1453
1775.411932,1454
1743.132409,1455
1721.975527,1456
1708.093827,1457
1697.761488,1458
1687.497438,1459
1675.007301,1460
1658.381574,1461
1637.108904,1462
1611.959977,1463
1583.643776,1464
1553.580018,1465
1522.530249,1466
1491.474378,1467
1461.260372,1468
1431.775706,1469
1402.684845,1470
1373.518371,1471
1343.11076,1472
1310.847296,1473
1277.037051,1474
1242.984381,1475
1210.700341,1476
1183.04204,1477
1162.638551,1478
1151.350999,1479
1149.707292,1480
1156.576438,1481
1170.96005,1482
1190.591701,1483
1214.530398,1484
1241.793821,1485
1272.721247,1486
1307.342333,1487
1346.294872,1488
1389.678849,1489
1437.215096,1490
1487.582288,1491
1538.323126,1492
1587.196209,1493
1631.753652,1494
1671.435263,1495
1706.365076,1496
1740.261939,1497
1776.708091,1498
1820.733382,1499
1876.018003,1500
1944.647104,1501
2025.530121,1502
2106.431863,1503
2187.274321,1504
2251.872265,1505
2294.409685,1506
2309.833371,1507
2297.360372,1508
2259.116459,1509
2203.415921,1510
2140.603727,1511
2082.419772,1512
2038.906558,1513
2016.454871,1514
2016.943722,1515
2037.946038,1516
2072.956436,1517
2079.460264,1518
2094.629416,1519
2074.331689,1520
2016.172025,1521
1922.083031,1522
1806.415646,1523
1663.648157,1524
1518.479691,1525
1388.733267,1526
1290.247164,1527
1234.255017,1528
1217.469916,1529
1261.916055,1530
1349.605987,1531
1466.068369,1532
1595.20848,1533
1721.437792,1534
1830.766325,1535
1913.091839,1536
1962.094429,1537
1975.09131,1538
1953.64745,1539
1901.891006,1540
1826.211987,1541
1734.035575,1542
1633.279608,1543
1532.343681,1544
1438.125742,1545
1357.505249,1546
1295.790723,1547
1256.903577,1548
1242.124515,1549
1250.737938,1550
1279.301682,1551
1322.847482,1552
1436.120245,1553
1492.380946,1554
1546.92399,1555
1596.808056,1556
1640.187498,1557
1677.806445,1558
1712.537495,1559
1745.667036,1560
1780.200091,1561
1815.428779,1562
1850.288214,1563
1880.561255,1564
1901.709317,1565
1909.173758,1566
1899.315355,1567
1871.931339,1568
1828.440498,1569
1774.720156,1570
1717.449441,1571
1664.798353,1572
1623.374037,1573
1597.679708,1574
1588.561838,1575
1595.48962,1576
1614.275682,1577
1640.452528,1578
1670.330624,1579
1701.0681,1580
1731.595864,1581
1763.455308,1582
1799.019449,1583
1840.563795,1584
1888.932277,1585
1941.773692,1586
1996.475114,1587
2047.96599,1588
2091.733665,1589
2126.657115,1590
2152.835116,1591
2172.793728,1592
2192.140843,1593
2216.542486,1594
2251.075033,1595
2297.845044,1596
2356.316051,1597
2421.610552,1598
2486.620572,1599
2543.78874,1600
2587.668047,1601
2616.068479,1602
2631.550734,1603
2640.25941,1604
2653.065706,1605
2678.924076,1606
2724.611035,1607
2792.053926,1608
2875.523332,1609
2962.819161,1610
3038.908471,1611
3087.353324,1612
3095.999505,1613
3057.742071,1614
2974.130605,1615
2855.474865,1616
2717.843532,1617
2581.940981,1618
2467.724812,1619
2391.298381,1620
2361.219703,1621
2377.120183,1622
2430.451533,1623
2506.984784,1624
2590.048755,1625
2663.903587,1626
2717.374673,1627
2744.999489,1628
2747.072698,1629
2728.565639,1630
2696.175083,1631
2656.707771,1632
2615.125029,1633
2572.127972,1634
2526.108669,1635
2473.18753,1636
2410.484309,1637
2282.22632,1638
2197.790801,1639
2109.010205,1640
2023.947205,1641
1951.466405,1642
1900.431773,1643
1875.158202,1644
1876.280138,1645
1898.98475,1646
1934.507832,1647
1971.499274,1648
1999.02405,1649
2009.085509,1650
1997.43595,1651
1965.090372,1652
1916.973588,1653
1860.496663,1654
1803.484775,1655
1752.253901,1656
1709.846806,1657
1675.5482,1658
1646.145941,1659
1617.473373,1660
1585.923703,1661
1551.626052,1662
1516.860583,1663
1489.032528,1664
1475.150528,1665
1483.450548,1666
1518.747886,1667
1581.424402,1668
1665.613,1669
1761.121625,1670
1854.602509,1671
1932.832147,1672
1985.325419,1673
2007.229241,1674
2000.333852,1675
1970.93618,1676
1929.092605,1677
1887.090158,1678
1854.0426,1679
1835.031155,1680
1828.717267,1681
1830.10022,1682
1829.697435,1683
1818.464599,1684
1790.921449,1685
1746.107999,1686
1688.656622,1687
1628.228439,1688
1576.457167,1689
1544.83331,1690
1547.512282,1691
1584.806595,1692
1660.073462,1693
1764.430339,1694
1886.297515,1695
2010.000078,1696
2122.152303,1697
2210.75651,1698
2270.327709,1699
2298.965024,1700
2300.488325,1701
2281.978962,1702
2250.887201,1703
2215.61808,1704
2182.712861,1705
2156.073116,1706
2137.247799,1707
2126.475836,1708
2122.212632,1709
2123.717218,1710
2129.948489,1711
2141.345837,1712
2157.733319,1713
2178.679231,1714
2203.417002,1715
2230.806151,1716
2257.600653,1717
2282.625223,1718
2303.498414,1719
2320.699698,1720
2335.914496,1721
2354.210785,1722
2380.311536,1723
2419.342944,1724
2474.8084,1725
2546.339967,1726
2630.448468,1727
2719.539102,1728
2789.18747,1729
2836.254053,1730
2833.742168,1731
2775.928333,1732
2663.147898,1733
2502.434139,1734
2310.115791,1735
2108.847614,1736
1923.73446,1737
1778.965805,1738
1692.268319,1739
1671.491401,1740
1713.921983,1741
1807.07147,1742
1931.172062,1743
2064.53732,1744
2187.570914,1745
2287.452658,1746
2357.505737,1747
2399.276589,1748
2420.085568,1749
2428.373445,1750
2432.567395,1751
2437.524294,1752
2444.125645,1753
2448.908663,1754
2445.784208,1755
2429.280695,1756
2396.504879,1757
2348.949734,1758
2291.947313,1759
2235.074616,1760
2189.247548,1761
2162.553713,1762
2160.537523,1763
2210.694586,1764
2251.8098,1765
2302.682766,1766
2353.436264,1767
2394.54796,1768
2418.932728,1769
2425.475251,1770
2416.028038,1771
2397.604111,1772
2378.739425,1773
2367.782089,1774
2370.770765,1775
2389.930432,1776
2424.431945,1777
2469.655775,1778
2519.412407,1779
2567.671373,1780
2608.414019,1781
2638.204526,1782
2656.704428,1783
2663.795831,1784
2662.791517,1785
2656.845257,1786
2648.773229,1787
2640.829225,1788
2634.837785,1789
2631.499707,1790
2631.111884,1791
2634.216106,1792
2641.397188,1793
2653.717737,1794
2672.325489,1795
2698.677552,1796
2732.92003,1797
2774.426357,1798
2821.919644,1799
2872.397734,1800
2922.64755,1801
2969.974089,1802
3010.878401,1803
3043.625184,1804
3067.6668,1805
3082.609155,1806
3090.556994,1807
3094.217348,1808
3095.825978,1809
3095.888552,1810
3095.987066,1811
3046.044382,1812
3041.313125,1813
3028.684891,1814
3006.389688,1815
2971.424313,1816
2925.009503,1817
2869.777809,1818
2810.525576,1819
2753.700989,1820
2706.09337,1821
2672.112369,1822
2655.876403,1823
2656.442427,1824
2672.689564,1825
2700.373858,1826
2733.71944,1827
2767.992348,1828
2784.05955,1829
2788.490131,1830
2764.957072,1831
2714.92512,1832
2641.926698,1833
2549.293082,1834
2442.138139,1835
2328.646634,1836
2216.75373,1837
2114.139127,1838
2027.985416,1839
1962.527517,1840
1918.629175,1841
1894.407612,1842
1886.826963,1843
1890.549368,1844
1901.245795,1845
1914.712602,1846
1928.563404,1847
1941.870934,1848
1954.639288,1849
1968.179775,1850
1983.26669,1851
1999.777026,1852
2017.943793,1853
2036.195069,1854
2053.221988,1855
2067.381344,1856
2077.330545,1857
2082.983657,1858
2083.658652,1859
2080.900415,1860
2076.061866,1861
2070.613562,1862
2066.274982,1863
2064.180106,1864
2064.750203,1865
2068.365007,1866
2078.77021,1867
2092.643524,1868
2114.503173,1869
2143.764501,1870
2180.133569,1871
2222.498045,1872
2269.154134,1873
2316.192499,1874
2358.76477,1875
2391.843909,1876
2411.15102,1877
2414.498616,1878
2401.514235,1879
2375.477115,1880
2341.193023,1881
2305.67434,1882
2276.446326,1883
2260.342177,1884
2263.011006,1885
2288.625219,1886
2334.911729,1887
2400.30866,1888
2478.173624,1889
2560.25702,1890
2639.268995,1891
2708.55685,1892
2762.587737,1893
2800.367818,1894
2821.656512,1895
2830.45533,1896
2831.796008,1897
2833.116679,1898
2839.561273,1899
2856.964229,1900
2887.223013,1901
2929.135787,1902
2979.262531,1903
3032.145131,1904
3080.705915,1905
3118.566811,1906
3141.540202,1907
3146.373861,1908
3134.357548,1909
3109.590981,1910
3076.834935,1911
3050.749921,1912
2982.999949,1913
2883.403618,1914
2756.135043,1915
2602.317667,1916
2425.167778,1917
2231.741492,1918
2033.89956,1919
1848.021934,1920
1690.470438,1921
1575.886136,1922
1512.057424,1923
1499.343307,1924
1529.451458,1925
1587.761919,1926
1657.445799,1927
1723.085658,1928
1786.996996,1929
1837.979343,1930
1893.424784,1931
1961.165073,1932
2050.417065,1933
2166.787098,1934
2310.63093,1935
2471.205313,1936
2631.660216,1937
2771.653586,1938
2870.619978,1939
2914.482944,1940
2899.407558,1941
2832.099237,1942
2729.285698,1943
2612.956862,1944
2506.471042,1945
2428.174269,1946
2387.69695,1947
2385.480982,1948
2412.594947,1949
2454.328373,1950
2495.160216,1951
2521.990487,1952
2528.359322,1953
2515.494656,1954
2490.280247,1955
2464.477485,1956
2449.463573,1957
2452.81229,1958
2476.876933,1959
2516.676651,1960
2561.845514,1961
2598.551252,1962
2614.596549,1963
2601.841432,1964
2559.124658,1965
2492.68791,1966
2416.434702,1967
2345.583386,1968
2295.807209,1969
2278.505683,1970
2296.272579,1971
2344.503903,1972
2410.145677,1973
2475.40515,1974
2521.670395,1975
2533.076747,1976
2499.842995,1977
2420.740673,1978
2284.296503,1979
2141.146186,1980
1990.375059,1981
1849.510844,1982
1732.440949,1983
1646.544436,1984
1591.842079,1985
1563.242707,1986
1550.574672,1987
1543.824229,1988
1534.412137,1989
1517.579224,1990
1494.12328,1991
1469.033151,1992
1450.131037,1993
1445.726807,1994
1462.017456,1995
1500.841512,1996
1560.11849,1997
1632.712344,1998
1709.611846,1999
1781.591943,2000
1841.08855,2001
1883.570072,2002
1909.618561,2003
1922.860068,2004
1928.592476,2005
1933.502462,2006
1941.273947,2007
1953.449835,2008
1968.428976,2009
1981.781184,2010
1988.374211,2011
1983.999179,2012
1965.508627,2013
1933.705322,2014
1890.977311,2015
1842.804386,2016
1795.766634,2017
1755.256977,2018
1726.316623,2019
1711.405789,2020
1710.563991,2021
1722.606064,2022
1745.512118,2023
1776.715937,2024
1814.050369,2025
1855.136846,2026
1897.896223,2027
1938.84885,2028
1973.950512,2029
1997.935049,2030
2006.303555,2031
1994.324159,2032
1963.090712,2033
1912.191572,2034
1849.622118,2035
1782.898504,2036
1722.526497,2037
1678.807841,2038
1660.26402,2039
1672.330824,2040
1714.75603,2041
1782.578493,2042
1866.335066,2043
1954.18767,2044
2035.369908,2045
2100.980219,2046
2146.55415,2047
2171.768332,2048
2179.666282,2049
2176.421033,2050
2170.137686,2051
2167.321243,2052
2174.600424,2053
2140.67653,2054
2171.477849,2055
2211.148574,2056
2255.242093,2057
2299.217296,2058
2339.58479,2059
2374.782962,2060
2405.450094,2061
2433.575888,2062
2462.434705,2063
2494.58351,2064
2531.561389,2065
2573.517655,2066
2619.064682,2067
2665.065445,2068
2707.717336,2069
2743.581337,2070
2769.048106,2071
2783.533517,2072
2788.907681,2073
2786.042884,2074
2779.716242,2075
2771.66726,2076
2763.350412,2077
2738.627192,2078
2705.057534,2079
2644.005356,2080
2554.02021,2081
2435.743898,2082
2292.478711,2083
2133.716501,2084
1973.423338,2085
1827.923545,2086
1714.027951,2087
1644.600035,2088
1624.804717,2089
1652.90862,2090
1717.855348,2091
1803.575272,2092
1892.226056,2093
1967.011014,2094
2016.830537,2095
2036.99734,2096
2029.74759,2097
2003.551089,2098
1969.069867,2099
1937.077399,2100
1915.163842,2101
1905.805485,2102
1906.998914,2103
1911.267135,2104
1911.359176,2105
1898.836544,2106
1869.137072,2107
1821.055473,2108
1758.309904,2109
1689.009876,2110
1623.11556,2111
1570.324963,2112
1539.349143,2113
1534.015952,2114
1554.588417,2115
1596.466023,2116
1652.901029,2117
1715.110958,2118
1775.316571,2119
1826.730093,2120
1866.333975,2121
1893.439281,2122
1909.798675,2123
1917.567735,2124
1920.016718,2125
1919.276774,2126
1916.910913,2127
1913.111559,2128
1908.468959,2129
1902.317592,2130
1894.773688,2131
1887.254491,2132
1880.930933,2133
1879.042608,2134
1883.112963,2135
1898.135407,2136
1921.482781,2137
1955.480902,2138
1997.067749,2139
2042.175627,2140
2086.526563,2141
2125.968778,2142
2156.273304,2143
2175.913696,2144
2183.309083,2145
2179.589216,2146
2167.664368,2147
2151.048355,2148
2133.840412,2149
2120.556778,2150
2115.168562,2151
2120.404198,2152
2136.623884,2153
2164.606553,2154
2202.229336,2155
2219.383242,2156
2268.473086,2157
2318.770981,2158
2367.757522,2159
2414.850353,2160
2460.527792,2161
2505.737732,2162
2551.557876,2163
2598.665109,2164
2646.466524,2165
2692.857116,2166
2736.985251,2167
2774.99637,2168
2803.755514,2169
2820.124639,2170
2822.13341,2171
2809.171577,2172
2782.643016,2173
2745.563252,2174
2701.571618,2175
2653.79643,2176
2603.929726,2177
2552.509587,2178
2499.446816,2179
2452.796697,2180
2394.701312,2181
2336.643405,2182
2281.761404,2183
2233.90176,2184
2197.057878,2185
2174.719527,2186
2168.680722,2187
2179.808915,2188
2205.605594,2189
2241.369388,2190
2280.949414,2191
2317.077674,2192
2344.233037,2193
2357.698177,2194
2356.404368,2195
2341.981962,2196
2317.348252,2197
2286.995424,2198
2255.507169,2199
2225.19703,2200
2198.427585,2201
2174.349116,2202
2152.07277,2203
2129.457727,2204
2104.399858,2205
2075.768205,2206
2042.214336,2207
2005.696424,2208
1967.909646,2209
1931.73832,2210
1899.771905,2211
1873.94872,2212
1856.297183,2213
1846.612922,2214
1844.786723,2215
1849.81915,2216
1860.061183,2217
1873.235701,2218
1887.670551,2219
1902.24935,2220
1915.209697,2221
1926.332408,2222
1935.140799,2223
1942.126568,2224
1948.139304,2225
1953.821729,2226
1961.55742,2227
1972.93561,2228
1989.13877,2229
2011.048527,2230
2037.819777,2231
2067.003407,2232
2095.460963,2233
2119.676525,2234
2137.048831,2235
2146.44693,2236
2148.521674,2237
2145.73439,2238
2142.989789,2239
2144.36727,2240
2154.205266,2241
2173.921175,2242
2202.352438,2243
2234.701249,2244
2263.997519,2245
2283.110406,2246
2284.09909,2247
2262.763118,2248
2217.507995,2249
2150.634848,2250
2068.615203,2251
1979.947246,2252
1894.542661,2253
1821.602822,2254
1766.770193,2255
1733.872916,2256
1721.670896,2257
1726.794586,2258
1743.823487,2259
1766.200381,2260
1788.293804,2261
1805.030525,2262
1813.915184,2263
1814.27746,2264
1806.814408,2265
1794.623197,2266
1780.197561,2267
1792.789666,2268
1780.770492,2269
1775.134994,2270
1777.705348,2271
1789.394994,2272
1810.436797,2273
1839.348015,2274
1874.856219,2275
1916.24182,2276
1961.597239,2277
2010.157994,2278
2061.034475,2279
2112.308315,2280
2162.054126,2281
2207.374004,2282
2246.732742,2283
2278.481986,2284
2301.80741,2285
2317.616804,2286
2327.983413,2287
2335.269525,2288
2343.940184,2289
2357.304578,2290
2378.897339,2291
2410.621068,2292
2452.110983,2293
2500.217295,2294
2551.507716,2295
2599.982141,2296
2640.558937,2297
2670.865947,2298
2689.035532,2299
2697.171272,2300
2700.071015,2301
2703.437617,2302
2713.223617,2303
2732.895644,2304
2765.039616,2305
2805.657092,2306
2850.337826,2307
2891.974442,2308
2921.901025,2309
2933.578209,2310
2922.867447,2311
2888.67339,2312
2834.58842,2313
2766.540343,2314
2692.881516,2315
2616.968389,2316
2548.051463,2317
2484.754587,2318
2428.251145,2319
2376.771823,2320
2327.435316,2321
2277.383608,2322
2226.764934,2323
2176.696716,2324
2131.352824,2325
2095.266965,2326
2071.771761,2327
2063.233844,2328
2068.019979,2329
2082.132593,2330
2100.161999,2331
2115.035213,2332
2121.638578,2333
2116.351095,2334
2098.533244,2335
2069.862292,2336
2034.495941,2337
1997.722739,2338
1963.278523,2339
1934.799193,2340
1912.451079,2341
1895.450049,2342
1880.513237,2343
1863.641855,2344
1843.237784,2345
1818.333013,2346
1789.695543,2347
1762.101349,2348
1740.120128,2349
1728.623666,2350
1731.331779,2351
1749.31159,2352
1782.284087,2353
1825.292066,2354
1872.104734,2355
1916.358028,2356
1951.684902,2357
1973.383301,2358
1980.458698,2359
1975.149648,2360
1960.870008,2361
1943.392271,2362
1928.281912,2363
1919.917869,2364
1920.792221,2365
1931.098661,2366
1948.2438,2367
1968.672789,2368
1988.269965,2369
2003.473276,2370
2011.305306,2371
2011.490331,2372
2010.01416,2373
2006.693609,2374
2002.694209,2375
1998.070779,2376
1990.968771,2377
1979.558009,2378
1960.994633,2379
1932.707787,2380
1894.265243,2381
1847.167073,2382
1795.674474,2383
1746.380644,2384
1705.690653,2385
1678.563137,2386
1668.549271,2387
1674.435632,2388
1698.830116,2389
1731.764876,2390
1772.565638,2391
1814.398142,2392
1852.438511,2393
1884.056081,2394
1908.760619,2395
1927.194253,2396
1956.495079,2397
1965.772096,2398
1969.81523,2399
1967.415948,2400
1957.608839,2401
1940.707143,2402
1918.608631,2403
1894.755461,2404
1874.066448,2405
1862.505254,2406
1866.011071,2407
1888.193273,2408
1930.301853,2409
1990.585241,2410
2063.798471,2411
2142.334787,2412
2217.980341,2413
2283.101475,2414
2332.749995,2415
2364.095322,2416
2378.648925,2417
2379.897429,2418
2373.133268,2419
2363.379983,2420
2355.096165,2421
2349.97636,2422
2347.729259,2423
2346.210994,2424
2342.514624,2425
2332.989791,2426
2317.067512,2427
2294.702891,2428
2269.573904,2429
2246.178625,2430
2229.96287,2431
2225.345187,2432
2234.194665,2433
2256.281989,2434
2288.346922,2435
2325.669097,2436
2363.224927,2437
2397.101474,2438
2424.873807,2439
2447.251025,2440
2466.475288,2441
2487.497632,2442
2513.363936,2443
2548.619991,2444
2593.244081,2445
2644.153899,2446
2697.237135,2447
2745.448841,2448
2783.107162,2449
2806.610075,2450
2815.709355,2451
2813.499546,2452
2805.699084,2453
2800.083602,2454
2805.359329,2455
2828.385218,2456
2871.273836,2457
2934.880831,2458
3013.53715,2459
3099.702934,2460
3184.29682,2461
3248.855757,2462
3309.610358,2463
3352.574553,2464
3378.333518,2465
3390.66412,2466
3395.673736,2467
3398.332609,2468
3404.593922,2469
3414.192576,2470
3428.393547,2471
3442.161381,2472
3451.410269,2473
3450.630552,2474
3438.179141,2475
3409.79119,2476
3372.342049,2477
3327.538576,2478
3283.988677,2479
3248.635726,2480
3226.537239,2481
3220.190657,2482
3228.789001,2483
3245.188374,2484
3263.234763,2485
3205.312428,2486
3156.461912,2487
3037.762907,2488
2850.062814,2489
2598.654436,2490
2335.164872,2491
2004.326987,2492
1676.970114,2493
1386.978011,2494
1164.310547,2495
1029.81643,2496
991.1867395,2497
1041.942654,2498
1161.632851,2499
1322.952558,2500
1495.088517,2501
1651.534914,2502
1774.257605,2503
1856.550241,2504
1902.568211,2505
1924.337142,2506
1936.141725,2507
1951.541217,2508
1977.945209,2509
2014.996765,2510
2056.036546,2511
2090.895276,2512
2108.606107,2513
2101.802517,2514
2069.794522,2515
2018.434617,2516
1958.330013,2517
1904.121157,2518
1869.203192,2519
1864.118626,2520
1891.789122,2521
1956.094214,2522
2031.018252,2523
2111.161444,2524
2183.676611,2525
2239.508356,2526
2276.318992,2527
2312.317406,2528
2325.965975,2529
2346.084627,2530
2383.496842,2531
2446.381815,2532
2536.997297,2533
2618.010455,2534
2744.425213,2535
2868.623027,2536
2976.748534,2537
3057.821079,2538
3106.758208,2539
3124.568371,2540
3115.17073,2541
3091.077907,2542
3062.067747,2543
3038.046274,2544
3027.195908,2545
3030.45442,2546
3045.248291,2547
3065.514271,2548
3085.343394,2549
3100.102066,2550
3074.177049,2551
3030.338298,2552
2935.931506,2553
2799.524489,2554
2628.425874,2555
2432.962221,2556
2225.976091,2557
2024.018121,2558
1844.079334,2559
1700.910238,2560
1606.057307,2561
1563.978153,2562
1571.735861,2563
1619.039852,2564
1691.869156,2565
1774.612663,2566
1852.991046,2567
1918.361827,2568
1966.90711,2569
2000.044426,2570
2022.68274,2571
2040.700193,2572
2059.786289,2573
2082.468021,2574
2108.444102,2575
2133.958131,2576
2154.209043,2577
2163.939463,2578
2160.189568,2579
2143.194915,2580
2116.820494,2581
2086.801653,2582
2066.905046,2583
2061.809572,2584
2081.444588,2585
2127.812538,2586
2197.321286,2587
2282.956076,2588
2373.56942,2589
2456.193344,2590
2519.523324,2591
2553.279095,2592
2552.481703,2593
2516.988759,2594
2452.518251,2595
2368.156838,2596
2275.529658,2597
2186.835403,2598
2111.920641,2599
2057.78929,2600
2026.890417,2601
2018.965988,2602
2029.26422,2603
2051.823083,2604
2078.980364,2605
2103.635424,2606
2119.86634,2607
2123.942588,2608
2114.55742,2609
2093.085721,2610
2061.721338,2611
2025.010549,2612
1987.742801,2613
1954.467711,2614
1930.722687,2615
1919.68812,2616
1923.001814,2617
1941.320915,2618
1972.215189,2619
2013.401923,2620
2060.693879,2621
2078.902342,2622
2107.084182,2623
2106.767807,2624
2075.144823,2625
2012.124295,2626
1919.062951,2627
1821.49899,2628
1692.714178,2629
1565.80799,2630
1455.138999,2631
1373.637531,2632
1330.229022,2633
1328.333593,2634
1365.170228,2635
1432.956303,2636
1520.598938,2637
1616.236198,2638
1714.014848,2639
1797.365625,2640
1869.096084,2641
1928.681029,2642
1979.557786,2643
2025.870882,2644
2070.618106,2645
2115.677673,2646
2159.396774,2647
2198.401409,2648
2228.10313,2649
2243.1782,2650
2240.807034,2651
2221.007245,2652
2186.183405,2653
2142.324884,2654
2096.143999,2655
2055.103684,2656
2024.921377,2657
2009.087285,2658
2007.829371,2659
2018.46114,2660
2035.96046,2661
2054.889304,2662
2070.363487,2663
2080.024354,2664
2084.299173,2665
2085.997487,2666
2089.733713,2667
2100.613985,2668
2122.032523,2669
2155.289073,2670
2199.491115,2671
2249.912324,2672
2302.154689,2673
2349.290542,2674
2387.45702,2675
2414.121186,2676
2430.535738,2677
2439.924762,2678
2449.316085,2679
2453.426921,2680
2462.703961,2681
2467.63319,2682
2465.835947,2683
2453.009686,2684
2424.422663,2685
2377.405361,2686
2307.66439,2687
2209.315748,2688
2085.898852,2689
1949.678838,2690
1813.206606,2691
1687.315771,2692
1580.4525,2693
1498.920889,2694
1446.065005,2695
1422.664356,2696
1427.135622,2697
1455.963502,2698
1503.584976,2699
1564.61755,2700
1634.118129,2701
1706.949196,2702
1779.053678,2703
1812.226611,2704
1873.323279,2705
1924.932373,2706
1964.273936,2707
1988.922277,2708
1997.127203,2709
1988.399108,2710
1963.629225,2711
1926.075783,2712
1880.01314,2713
1831.133931,2714
1784.919934,2715
1746.441508,2716
1718.977684,2717
1704.613104,2718
1703.078688,2719
1712.250306,2720
1730.291706,2721
1753.737386,2722
1780.200925,2723
1808.132312,2724
1835.67152,2725
1863.513493,2726
1910.125107,2727
1964.150191,2728
2046.398757,2729
2153.176964,2730
2279.845591,2731
2419.030832,2732
2557.217602,2733
2679.204057,2734
2767.924702,2735
2808.567108,2736
2791.336613,2737
2714.228394,2738
2583.391541,2739
2413.216702,2740
2223.452066,2741
2035.547632,2742
1869.654994,2743
1739.691322,2744
1651.972965,2745
1600.555408,2746
1580.9912,2747
1577.680419,2748
1580.107858,2749
1580.461256,2750
1574.603092,2751
1563.976163,2752
1552.567398,2753
1547.207358,2754
1552.797872,2755
1570.740199,2756
1598.795953,2757
1628.602482,2758
1649.139824,2759
1649.864821,2760
1622.672692,2761
1564.788111,2762
1480.840511,2763
1381.865356,2764
1282.584104,2765
1199.027582,2766
1144.190893,2767
1126.195383,2768
1145.628686,2769
1195.495055,2770
1264.021237,2771
1336.703935,2772
1398.715904,2773
1441.577644,2774
1462.103204,2775
1463.292605,2776
1453.640829,2777
1444.33418,2778
1445.886212,2779
1465.492961,2780
1506.362563,2781
1565.526891,2782
1635.558248,2783
1706.486031,2784
1767.909758,2785
1811.395832,2786
1833.506255,2787
1814.310111,2788
1800.143374,2789
1779.396806,2790
1761.08285,2791
1752.486408,2792
1758.064273,2793
1777.926373,2794
1809.339009,2795
1846.63811,2796
1883.595488,2797
1913.864202,2798
1932.827698,2799
1938.399913,2800
1930.722708,2801
1913.693048,2802
1892.360946,2803
1872.430495,2804
1860.233072,2805
1859.360466,2806
1871.185165,2807
1895.865004,2808
1929.303631,2809
1967.228616,2810
2003.916358,2811
2033.818222,2812
2052.942294,2813
2058.743799,2814
2051.976259,2815
2035.095484,2816
2012.949195,2817
1991.248608,2818
1975.159135,2819
1969.442559,2820
1976.035244,2821
1995.054865,2822
2023.85736,2823
2058.428803,2824
2094.091656,2825
2126.272276,2826
2140.309624,2827
2140.701742,2828
2115.185974,2829
2064.649374,2830
1991.056188,2831
1899.144135,2832
1795.020274,2833
1687.313573,2834
1585.982231,2835
1500.603483,2836
1438.791834,2837
1405.06884,2838
1399.60438,2839
1418.026219,2840
1451.925926,2841
1490.429887,2842
1522.24558,2843
1538.220722,2844
1532.638622,2845
1505.313539,2846
1459.643089,2847
1403.192708,2848
1345.059162,2849
1293.567095,2850
1255.1938,2851
1232.444477,2852
1224.714396,2853
1227.829028,2854
1235.730292,2855
1243.196879,2856
1246.412439,2857
1244.600875,2858
1240.625931,2859
1239.401986,2860
1246.638486,2861
1267.369624,2862
1302.897914,2863
1351.580911,2864
1407.99927,2865
1470.771575,2866
1528.066212,2867
1579.016379,2868
1618.285226,2869
1644.622936,2870
1659.341284,2871
1665.888589,2872
1668.052676,2873
1668.842812,2874
1668.655439,2875
1666.956213,2876
1660.575248,2877
1646.747015,2878
1623.902292,2879
1590.717648,2880
1622.07553,2881
1619.472706,2882
1671.673446,2883
1784.917588,2884
1967.660777,2885
2218.024016,2886
2449.804091,2887
2788.585764,2888
3126.46044,2889
3427.942143,2890
3657.740961,2891
3791.434326,2892
3817.314018,2893
3740.360341,2894
3579.527776,2895
3363.908123,2896
3127.22617,2897
2898.626238,2898
2701.103454,2899
2545.861621,2900
2433.784701,2901
2358.179002,2902
2306.176686,2903
2258.695844,2904
2210.86813,2905
2153.142869,2906
2087.85589,2907
2023.990047,2908
1970.856482,2909
1936.714852,2910
1926.700655,2911
1939.589821,2912
1969.867316,2913
2006.931302,2914
2037.635957,2915
2050.214108,2916
2034.887526,2917
1989.168991,2918
1915.151524,2919
1822.214022,2920
1722.975771,2921
1634.23912,2922
1565.371941,2923
1527.092616,2924
1520.438094,2925
1541.740855,2926
1583.269881,2927
1633.767148,2928
1682.553436,2929
1720.541191,2930
1741.769491,2931
1745.575001,2932
1735.365149,2933
1718.84521,2934
1704.423304,2935
1700.255471,2936
1712.555179,2937
1743.709943,2938
1792.962817,2939
1855.250962,2940
1924.395156,2941
1992.165953,2942
2050.944675,2943
2094.942721,2944
2119.854212,2945
2124.879859,2946
2111.130608,2947
2080.835545,2948
2039.380663,2949
1991.700351,2950
1943.191121,2951
1898.357769,2952
1860.894649,2953
1833.368204,2954
1817.175121,2955
1812.837377,2956
1820.500056,2957
1838.662006,2958
1865.869719,2959
1899.294171,2960
1936.676673,2961
1975.784572,2962
2015.846381,2963
2055.138321,2964
2093.233921,2965
2129.179158,2966
2160.810121,2967
2185.780957,2968
2201.025518,2969
2203.514844,2970
2190.157288,2971
2159.926582,2972
2113.508261,2973
2053.774523,2974
1985.725126,2975
1915.805513,2976
1850.745226,2977
1797.085955,2978
1758.8656,2979
1738.2595,2980
1735.030242,2981
1746.429904,2982
1769.112099,2983
1799.379226,2984
1834.066413,2985
1871.262717,2986
1910.153443,2987
1950.940002,2988
2009.78081,2989
2077.304063,2990
2106.251869,2991
2221.852084,2992
2356.714765,2993
2506.082742,2994
2660.001235,2995
2806.386986,2996
2932.48541,2997
3025.350698,2998
3075.80918,2999
3079.871866,3000
3038.615231,3001
2959.00282,3002
2852.162439,3003
2731.996775,3004
2613.097551,3005
2507.544065,3006
2426.704422,3007
2376.209243,3008
2357.366281,3009
2367.568575,3010
2399.130317,3011
2442.888786,3012
2488.33819,3013
2525.262159,3014
2544.71319,3015
2539.514961,3016
2505.921491,3017
2441.935892,3018
2350.390406,3019
2237.199051,3020
2111.045895,3021
1982.752164,3022
1863.108011,3023
1761.85749,3024
1687.321753,3025
1643.326247,3026
1630.97848,3027
1648.204687,3028
1690.125812,3029
1749.328778,3030
1818.254778,3031
1889.50359,3032
1955.340482,3033
2011.142879,3034
2052.395074,3035
2077.851332,3036
2086.499595,3037
2080.184964,3038
2061.259462,3039
2032.711228,3040
1997.915876,3041
1960.610071,3042
1924.554587,3043
1892.589641,3044
1867.588783,3045
1849.952758,3046
1839.758551,3047
1834.19783,3048
1829.740011,3049
1823.277401,3050
1811.043763,3051
1791.419051,3052
1764.093414,3053
1731.320072,3054
1695.684008,3055
1661.738216,3056
1632.186747,3057
1609.177485,3058
1591.586786,3059
1576.562509,3060
1558.602748,3061
1532.750603,3062
1494.493233,3063
1443.077444,3064
1380.305024,3065
1312.290915,3066
1248.56792,3067
1197.695606,3068
1167.984778,3069
1165.065188,3070
1188.781523,3071
1234.338225,3072
1293.564593,3073
1356.258849,3074
1412.032331,3075
1453.33073,3076
1478.224884,3077
1488.231357,3078
1490.424209,3079
1493.624889,3080
1507.599274,3081
1539.22313,3082
1591.186573,3083
1662.66365,3084
1748.569029,3085
1841.310471,3086
1933.721159,3087
1987.1459,3088
2054.333327,3089
2099.022731,3090
2119.586066,3091
2116.864564,3092
2092.81903,3093
2049.584696,3094
1989.040078,3095
1914.576977,3096
1829.127211,3097
1736.224663,3098
1641.056111,3099
1549.010337,3100
1465.408484,3101
1395.459122,3102
1342.356597,3103
1307.480952,3104
1290.333292,3105
1287.817518,3106
1296.276799,3107
1310.760948,3108
1326.856267,3109
1341.307264,3110
1352.925325,3111
1361.287709,3112
1367.904646,3113
1374.65169,3114
1382.790217,3115
1392.498464,3116
1408.654168,3117
1419.544394,3118
1429.278456,3119
1437.261927,3120
1442.740497,3121
1447.2697,3122
1451.784584,3123
1460.649154,3124
1475.662344,3125
1500.691986,3126
1536.9729,3127
1582.882532,3128
1636.442295,3129
1692.545319,3130
1744.819571,3131
1788.166121,3132
1818.473472,3133
1834.558093,3134
1838.35297,3135
1835.153797,3136
1833.236029,3137
1839.232461,3138
1861.262735,3139
1902.282478,3140
1961.989793,3141
2035.440302,3142
2113.73504,3143
2186.150584,3144
2241.992285,3145
2273.084836,3146
2277.470589,3147
2254.268556,3148
2211.824619,3149
2161.794744,3150
2115.500982,3151
2084.337026,3152
2074.987495,3153
2088.689223,3154
2121.772924,3155
2165.687247,3156
2209.804286,3157
2255.251493,3158
2277.275108,3159
2286.82778,3160
2288.612171,3161
2291.878272,3162
2305.529577,3163
2315.229377,3164
2371.532533,3165
2449.904231,3166
2543.797708,3167
2641.68482,3168
2730.744995,3169
2798.805458,3170
2837.857554,3171
2845.443958,3172
2825.121198,3173
2786.235839,3174
2738.839471,3175
2694.187654,3176
2659.447055,3177
2637.697039,3178
2627.862947,3179
2625.480463,3180
2609.980277,3181
2584.789988,3182
2531.659121,3183
2452.08908,3184
2351.615403,3185
2239.455415,3186
2128.600067,3187
2034.189111,3188
1968.514909,3189
1940.967008,3190
1952.56382,3191
1998.488921,3192
2066.37957,3193
2140.826507,3194
2206.250036,3195
2250.265131,3196
2266.094204,3197
2252.733883,3198
2215.991383,3199
2163.834038,3200
2106.5784,3201
2083.313634,3202
2036.48021,3203
1998.727058,3204
1967.731893,3205
1938.391639,3206
1906.35012,3207
1869.158982,3208
1827.93465,3209
1787.387876,3210
1755.758026,3211
1741.858904,3212
1752.71148,3213
1794.016555,3214
1863.938981,3215
1958.824945,3216
2069.045493,3217
2183.609465,3218
2292.270276,3219
2353.572451,3220
2426.505819,3221
2478.30238,3222
2511.408423,3223
2533.312156,3224
2550.257191,3225
2570.794954,3226
2599.591249,3227
2639.294058,3228
2689.614647,3229
2746.943129,3230
2806.372421,3231
2862.470836,3232
2910.498962,3233
2947.642162,3234
2971.455909,3235
2986.069996,3236
2981.749,3237
2969.838462,3238
2941.76304,3239
2898.795093,3240
2841.199751,3241
2766.674379,3242
2675.573435,3243
2570.089883,3244
2454.997042,3245
2337.209645,3246
2225.964139,3247
2129.32379,3248
2053.228095,3249
2001.316937,3250
1971.762988,3251
1959.658687,3252
1957.633935,3253
1956.85706,3254
1951.062363,3255
1935.803462,3256
1910.337364,3257
1876.887154,3258
1840.924923,3259
1806.864357,3260
1780.653419,3261
1765.44809,3262
1761.335124,3263
1766.234913,3264
1775.943724,3265
1785.700862,3266
1791.055478,3267
1791.30784,3268
1786.800052,3269
1779.797929,3270
1774.012016,3271
1772.356432,3272
1774.867421,3273
1781.396271,3274
1787.428999,3275
1788.236898,3276
1779.296832,3277
1757.28557,3278
1721.294596,3279
1674.604561,3280
1622.853885,3281
1573.744712,3282
1535.32688,3283
1514.275947,3284
1514.892053,3285
1536.924369,3286
1576.792036,3287
1628.0024,3288
1682.357823,3289
1732.108085,3290
1771.265046,3291
1795.745545,3292
1805.480163,3293
1803.144166,3294
1792.810641,3295
1779.939557,3296
1768.967789,3297
1763.083034,3298
1763.33447,3299
1768.404726,3300
1776.5186,3301
1784.25899,3302
1788.913769,3303
1788.283251,3304
1781.138029,3305
1767.919487,3306
1750.06188,3307
1729.552794,3308
1708.108978,3309
1687.476781,3310
1668.950775,3311
1657.919011,3312
1642.689694,3313
1631.509649,3314
1625.025368,3315
1624.282694,3316
1630.486337,3317
1643.812761,3318
1664.286948,3319
1690.610349,3320
1721.178958,3321
1752.687632,3322
1781.713566,3323
1805.559637,3324
1821.516707,3325
1828.646179,3326
1829.296328,3327
1825.242739,3328
1820.89768,3329
1820.774274,3330
1827.876257,3331
1845.528389,3332
1873.346026,3333
1910.771944,3334
1954.607812,3335
2000.63446,3336
2044.629966,3337
2083.172844,3338
2114.563321,3339
2138.303596,3340
2155.840802,3341
2169.486607,3342
2181.311405,3343
2192.937482,3344
2204.788453,3345
2216.144233,3346
2225.536626,3347
2230.683066,3348
2229.378608,3349
2220.561759,3350
2205.784535,3351
2186.839506,3352
2168.326771,3353
2155.11274,3354
2151.01383,3355
2159.496633,3356
2182.258731,3357
2218.519192,3358
2266.872766,3359
2323.352363,3360
2384.215057,3361
2445.004348,3362
2502.077499,3363
2553.921667,3364
2598.414303,3365
2635.579267,3366
2665.905236,3367
2688.380513,3368
2663.968837,3369
2616.090841,3370
2502.102204,3371
2325.340646,3372
2091.171644,3373
1812.002034,3374
1508.303131,3375
1211.678033,3376
956.3768811,3377
775.9331074,3378
694.1645786,3379
720.270795,3380
845.1758484,3381
1042.881469,3382
1275.876646,3383
1501.682776,3384
1682.674807,3385
1793.434001,3386
1824.631648,3387
1784.523571,3388
1695.03552,3389
1585.957501,3390
1486.823009,3391
1418.583729,3392
1391.529101,3393
1407.723254,3394
1460.646956,3395
1496.529351,3396
1505.841058,3397
1475.847229,3398
1403.304628,3399
1295.999272,3400
1172.110686,3401
1055.62706,3402
970.6400525,3403
935.1183788,3404
956.6216702,3405
1030.086538,3406
1139.693549,3407
1262.377129,3408
1374.063548,3409
1455.067108,3410
1494.594689,3411
1492.793728,3412
1459.615765,3413
1411.601312,3414
1366.909076,3415
1340.483131,3416
1346.016771,3417
1383.125109,3418
1448.722267,3419
1567.149724,3420
1657.512072,3421
1738.452911,3422
1801.17183,3423
1841.649271,3424
1860.766336,3425
1862.833073,3426
1852.894194,3427
1835.748965,3428
1815.445597,3429
1793.930709,3430
1773.551595,3431
1756.719544,3432
1747.536815,3433
1751.534251,3434
1776.452494,3435
1829.851036,3436
1918.771322,3437
2046.531546,3438
2211.44169,3439
2407.926783,3440
2622.649952,3441
2807.9049,3442
2962.19364,3443
3033.507505,3444
3007.910196,3445
2878.498871,3446
2649.849118,3447
2339.896002,3448
1979.330996,3449
1606.788384,3450
1262.459988,3451
982.224573,3452
790.4438172,3453
697.9119549,3454
701.07465,3455
785.5816083,3456
930.7938414,3457
1117.473736,3458
1330.89063,3459
1558.053108,3460
1797.050503,3461
2045.018999,3462
2299.184682,3463
2554.179066,3464
2798.912636,3465
3017.277516,3466
3190.135193,3467
3300.404721,3468
3337.309411,3469
3299.910087,3470
3199.018655,3471
3055.154164,3472
2893.113807,3473
2740.962714,3474
2619.338497,3475
2543.178359,3476
2515.919823,3477
2533.644793,3478
2583.335947,3479
2648.048704,3480
2713.773022,3481
2766.310006,3482
2800.75911,3483
2816.215159,3484
2816.67998,3485
2807.930489,3486
2794.830979,3487
2780.167734,3488
2764.683079,3489
2747.259323,3490
2727.855025,3491
2706.273456,3492
2686.014315,3493
2670.74971,3494
2665.471526,3495
2672.318694,3496
2690.483592,3497
2717.451413,3498
2744.108051,3499
2761.972085,3500
2761.313965,3501
2734.583881,3502
2680.135138,3503
2601.63226,3504
2509.784186,3505
2419.931726,3506
2349.233633,3507
2311.568407,3508
2315.980018,3509
2364.065091,3510
2448.371426,3511
2555.755085,3512
2669.348436,3513
2771.865704,3514
2848.993176,3515
2893.098284,3516
2901.098018,3517
2876.087469,3518
2825.743868,3519
2758.378077,3520
2681.67423,3521
2601.794853,3522
2519.092756,3523
2433.444265,3524
2342.8766,3525
2243.714534,3526
2135.054296,3527
2017.583261,3528
1895.465798,3529
1774.943749,3530
1663.100411,3531
1566.914072,3532
1492.25321,3533
1442.550609,3534
1420.193508,3535
1426.547984,3536
1462.906135,3537
1531.58176,3538
1641.8074,3539
1794.492291,3540
1994.821631,3541
2241.126976,3542
2523.000283,3543
2819.223838,3544
3102.654718,3545
3341.530304,3546
3500.098658,3547
3550.346389,3548
3474.619155,3549
3270.242831,3550
2949.953976,3551
2544.50251,3552
2093.852991,3553
1643.870715,3554
1237.363878,3555
908.5799131,3556
677.6720805,3557
550.5511472,3558
519.5995746,3559
569.0071758,3560
677.5179198,3561
826.1692893,3562
999.0615245,3563
1186.599399,3564
1383.3044,3565
1587.060364,3566
1794.675935,3567
2002.730558,3568
2203.214029,3569
2387.828847,3570
2549.196674,3571
2675.237582,3572
2764.351371,3573
2814.192066,3574
2828.516975,3575
2815.731514,3576
2786.119768,3577
2749.58678,3578
2713.479307,3579
2681.908829,3580
2655.295734,3581
2631.946803,3582
2608.936348,3583
2584.311741,3584
2557.762836,3585
2531.412175,3586
2509.503551,3587
2496.889263,3588
2463.844424,3589
2430.406086,3590
2357.416673,3591
2237.962801,3592
2062.409341,3593
1829.453707,3594
1542.530742,3595
1221.464188,3596
895.7857907,3597
600.6919196,3598
370.991876,3599
233.9036852,3600
202.9797392,3601
275.2173384,3602
431.2440139,3603
639.6971088,3604
863.8513802,3605
1069.428049,3606
1231.121456,3607
1337.06156,3608
1389.359934,3609
1401.613821,3610
1393.767172,3611
1385.808459,3612
1392.337087,3613
1419.052273,3614
1461.732737,3615
1508.728784,3616
1544.759666,3617
1556.166727,3618
1543.896042,3619
1505.364207,3620
1461.021687,3621
1428.037224,3622
1426.902855,3623
1471.796572,3624
1569.387115,3625
1712.8612,3626
1885.258833,3627
2061.374605,3628
2213.924817,3629
2319.709607,3630
2364.709854,3631
2347.290161,3632
2278.644406,3633
2177.376252,3634
2067.121569,3635
1968.541929,3636
1894.66704,3637
1850.396033,3638
1829.648429,3639
1821.438285,3640
1810.951716,3641
1785.900504,3642
1739.239433,3643
1671.713197,3644
1563.326755,3645
1492.113706,3646
1441.932106,3647
1413.737991,3648
1404.711678,3649
1408.925567,3650
1416.076434,3651
1415.067831,3652
1397.402922,3653
1360.996696,3654
1311.375401,3655
1258.384682,3656
1214.934151,3657
1190.169375,3658
1187.785211,3659
1203.232223,3660
1223.652422,3661
1233.306342,3662
1215.93518,3663
1122.592575,3664
1023.6175,3665
895.2421466,3666
756.0252732,3667
629.2383618,3668
537.069391,3669
494.9754382,3670
508.20271,3671
570.5962531,3672
666.3242015,3673
778.6575963,3674
891.7061036,3675
997.4211504,3676
1097.52792,3677
1204.615369,3678
1335.289161,3679
1508.3847,3680
1738.066719,3681
2027.251574,3682
2363.372245,3683
2718.626408,3684
3052.905687,3685
3322.510717,3686
3485.955329,3687
3515.298575,3688
3399.36615,3689
3145.68739,3690
2780.153193,3691
2341.613289,3692
1874.557913,3693
1424.448802,3694
1026.633732,3695
710.2882597,3696
485.6954299,3697
355.4426313,3698
312.4779649,3699
344.0423792,3700
437.4236755,3701
579.8247561,3702
760.7396296,3703
968.5737469,3704
1190.600906,3705
1410.612622,3706
1609.116817,3707
1766.398632,3708
1862.946967,3709
1884.390081,3710
1825.808239,3711
1692.126678,3712
1498.893192,3713
1271.315334,3714
1039.169845,3715
831.8624781,3716
673.2927602,3717
577.7842847,3718
548.069136,3719
575.7847576,3720
644.5087839,3721
735.8738975,3722
832.504354,3723
924.1724355,3724
1008.453696,3725
1091.050299,3726
1183.083226,3727
1295.23984,3728
1435.680039,3729
1603.890231,3730
1789.923902,3731
1976.131512,3732
2138.637778,3733
2255.176007,3734
2308.056354,3735
2289.448696,3736
2203.334192,3737
2064.888286,3738
1898.251766,3739
1731.47963,3740
1590.967953,3741
1501.697342,3742
1469.826092,3743
1499.981627,3744
1580.706272,3745
1694.684638,3746
1823.484317,3747
1949.990742,3748
2061.484907,3749
2152.154582,3750
2221.610119,3751
2274.29094,3752
2315.745777,3753
2351.614319,3754
2382.977266,3755
2407.93858,3756
2420.49423,3757
2413.990554,3758
2382.57606,3759
2324.441648,3760
2243.970874,3761
2151.889885,3762
2063.919938,3763
1998.421706,3764
1974.251738,3765
2004.70904,3766
2096.476024,3767
2250.962829,3768
2454.438001,3769
2691.084946,3770
2938.45416,3771
3172.42896,3772
3372.767416,3773
3525.203593,3774
3598.394917,3775
3644.183238,3776
3641.639256,3777
3601.410764,3778
3536.035148,3779
3457.606188,3780
3375.959126,3781
3297.685004,3782
3224.436864,3783
3151.651375,3784
3075.844139,3785
2988.485753,3786
2884.75087,3787
2762.684182,3788
2623.766981,3789
2474.042921,3790
2321.78955,3791
2187.614691,3792
2072.70781,3793
1994.500522,3794
1950.446007,3795
1934.546682,3796
1932.641463,3797
1927.528423,3798
1900.109353,3799
1833.036118,3800
1718.025842,3801
1555.66964,3802
1358.879367,3803
1149.470122,3804
955.7102053,3805
804.2806593,3806
715.54598,3807
699.7576845,3808
753.1413262,3809
859.9605995,3810
996.9832018,3811
1137.41531,3812
1258.171082,3813
1344.437935,3814
1392.845525,3815
1410.597839,3816
1413.300523,3817
1419.154892,3818
1444.53716,3819
1498.978121,3820
1582.512626,3821
1685.68138,3822
1792.819196,3823
1885.482403,3824
1948.394453,3825
1974.531106,3826
1964.091093,3827
1929.14566,3828
1886.575339,3829
1855.89164,3830
1853.701208,3831
1889.981367,3832
1966.146466,3833
2075.26898,3834
2205.247367,3835
2345.701712,3836
2478.444522,3837
2599.803844,3838
2703.592039,3839
2790.905005,3840
2866.325103,3841
2935.413133,3842
3000.905996,3843
3061.73241,3844
3112.719487,3845
3146.425475,3846
3155.453939,3847
3135.505074,3848
3086.806741,3849
3015.423013,3850
2932.007167,3851
2850.000236,3852
2782.740051,3853
2740.093641,3854
2726.095121,3855
2737.122147,3856
2764.632632,3857
2793.318809,3858
2807.205542,3859
2792.436152,3860
2736.359601,3861
2635.362953,3862
2489.690933,3863
2306.369414,3864
2097.313682,3865
1874.331168,3866
1649.440847,3867
1434.815908,3868
1237.217207,3869
1062.973508,3870
916.1803406,3871
799.0403109,3872
715.3363418,3873
670.2382953,3874
672.3590076,3875
729.8368565,3876
851.9662617,3877
1044.895141,3878
1311.077481,3879
1648.365794,3880
2039.249878,3881
2468.037904,3882
2903.739629,3883
3314.170892,3884
3668.386818,3885
3940.197917,3886
4111.878292,3887
4177.030253,3888
4141.730327,3889
4023.496466,3890
3848.165542,3891
3645.301319,3892
3443.122512,3893
3264.052371,3894
3121.82103,3895
3020.651027,3896
2956.535522,3897
2920.116367,3898
2900.314233,3899
2887.740659,3900
2877.053359,3901
2867.755114,3902
2863.384482,3903
2869.480638,3904
2891.011368,3905
2930.057858,3906
2984.434716,3907
3047.630031,3908
3110.06519,3909
3153.044278,3910
3177.1588,3911
3168.239415,3912
3126.280593,3913
3056.902208,3914
2995.12903,3915
2902.421055,3916
2817.743798,3917
2752.326946,3918
2712.583193,3919
2700.167873,3920
2711.387333,3921
2739.050927,3922
2774.205066,3923
2808.705065,3924
2836.820109,3925
2856.525144,3926
2869.511526,3927
2880.257812,3928
2893.787702,3929
2915.289969,3930
2947.185717,3931
2988.623675,3932
3036.897237,3933
3086.085892,3934
3122.15184,3935
3150.717922,3936
3146.363783,3937
3098.949777,3938
2991.668769,3939
2816.569021,3940
2569.523103,3941
2257.99684,3942
1891.203606,3943
1493.071833,3944
1093.551035,3945
726.1883173,3946
423.8913679,3947
213.6818069,3948
112.0469613,3949
121.5769353,3950
230.2238395,3951
413.6969392,3952
639.8281546,3953
869.4903668,3954
1084.256933,3955
1258.459266,3956
1383.463324,3957
1461.788447,3958
1504.318702,3959
1525.880395,3960
1540.506383,3961
1557.661943,3962
1580.191557,3963
1604.502335,3964
1622.49178,3965
1625.092516,3966
1605.492987,3967
1562.005527,3968
1499.057999,3969
1426.530796,3970
1355.660403,3971
1300.792182,3972
1265.905949,3973
1263.021622,3974
1286.323498,3975
1327.958863,3976
1377.028745,3977
1421.948538,3978
1454.068534,3979
1468.889138,3980
1467.397655,3981
1454.675589,3982
1438.642016,3983
1427.132613,3984
1425.804614,3985
1436.529245,3986
1456.911388,3987
1481.076653,3988
1437.879728,3989
1493.703753,3990
1589.681453,3991
1723.830042,3992
1897.742504,3993
2111.140971,3994
2357.291278,3995
2620.873664,3996
2878.138961,3997
3103.342268,3998
3270.814496,3999
3363.658339,4000
3376.866241,4001
3318.677875,4002
3210.010956,4003
3078.255063,4004
2953.521486,4005
2859.137121,4006
2809.613678,4007
2806.366377,4008
2839.547999,4009
2891.419963,4010
2941.547973,4011
2972.378763,4012
2973.719041,4013
2944.994118,4014
2894.801342,4015
2829.659201,4016
2762.76378,4017
2697.105721,4018
2629.350449,4019
2549.733966,4020
2444.273309,4021
2290.978191,4022
2083.72894,4023
1814.827681,4024
1557.044137,4025
1210.812805,4026
875.2458015,4027
586.977211,4028
378.224188,4029
270.1129049,4030
268.5776187,4031
363.016135,4032
528.6087062,4033
731.9741868,4034
938.0895408,4035
1117.4644,4036
1251.413137,4037
1334.492021,4038
1373.645404,4039
1384.279077,4040
1385.144967,4041
1392.212455,4042
1414.711697,4043
1452.910926,4044
1498.950747,4045
1539.730281,4046
1564.345893,4047
1564.777928,4048
1544.224222,4049
1515.006502,4050
1497.553266,4051
1517.415015,4052
1598.705993,4053
1757.631275,4054
1996.894166,4055
2304.114831,4056
2652.158057,4057
3001.699453,4058
3312.182829,4059
3546.504579,4060
3679.06949,4061
3702.678529,4062
3626.711423,4063
3476.880963,4064
3288.926991,4065
3101.503945,4066
2949.419895,4067
2853.817984,4068
2823.864505,4069
2850.928135,4070
2914.560297,4071
2988.290377,4072
3045.820052,4073
3068.672723,4074
3048.290328,4075
2986.91884,4076
2895.027414,4077
2786.502752,4078
2672.574125,4079
2560.309713,4080
2446.15765,4081
2319.961345,4082
2168.050631,4083
1979.023298,4084
1746.306534,4085
1476.707005,4086
1187.408519,4087
904.8630102,4088
660.2685203,4089
483.6415226,4090
397.1734412,4091
409.9678439,4092
516.7272699,4093
698.9541994,4094
927.2878165,4095
1170.411091,4096
1398.80009,4097
1563.485327,4098
1703.24392,4099
1787.623217,4100
1819.202039,4101
1805.437612,4102
1755.011511,4103
1674.514883,4104
1569.707371,4105
1444.132851,4106
1301.328084,4107
1149.904832,4108
1002.154766,4109
876.0161598,4110
793.7476297,4111
775.0835725,4112
836.5557273,4113
986.015834,4114
1220.210303,4115
1524.600516,4116
1875.376446,4117
2242.479742,4118
2595.87629,4119
2908.507591,4120
3160.02793,4121
3342.515232,4122
3455.556028,4123
3507.696053,4124
3513.002889,4125
3487.004686,4126
3442.219097,4127
3387.04897,4128
3325.088668,4129
3256.486072,4130
3179.447527,4131
3093.995238,4132
3002.492356,4133
2910.856561,4134
2828.028034,4135
2763.79453,4136
2726.61247,4137
2714.435794,4138
2725.489341,4139
2748.321445,4140
2768.685778,4141
2774.079321,4142
2755.155704,4143
2706.236824,4144
2628.229938,4145
2528.143094,4146
2416.293369,4147
2304.97033,4148
2203.342301,4149
2115.842533,4150
2038.770959,4151
1962.510098,4152
1874.372422,4153
1761.262534,4154
1614.457408,4155
1432.887229,4156
1224.656698,4157
1004.93379,4158
794.3907241,4159
615.2814587,4160
486.1947606,4161
418.8748288,4162
440.7891781,4163
538.343444,4164
760.0027529,4165
979.0033639,4166
1209.622457,4167
1439.713364,4168
1653.093807,4169
1836.034739,4170
1981.349649,4171
2088.156915,4172
2162.277857,4173
2214.108866,4174
2254.917046,4175
2291.691143,4176
2328.076104,4177
2360.340015,4178
2380.274429,4179
2377.751503,4180
2343.733685,4181
2274.436755,4182
2173.950116,4183
2056.056115,4184
1944.474318,4185
1875.376581,4186
1870.566401,4187
1957.874834,4188
2145.952572,4189
2425.477994,4190
2773.36345,4191
3153.749184,4192
3522.957019,4193
3837.195009,4194
3965.973084,4195
4083.181445,4196
4088.998176,4197
4000.260195,4198
3847.97922,4199
3669.003057,4200
3498.722428,4201
3361.063633,4202
3269.106344,4203
3219.698125,4204
3197.106224,4205
3183.162284,4206
3157.902374,4207
3109.132846,4208
3035.235536,4209
2944.675269,4210
2853.668884,4211
2781.203079,4212
2729.319974,4213
2705.073531,4214
2688.45853,4215
2655.194889,4216
2575.185806,4217
2421.686144,4218
2180.149404,4219
1849.656785,4220
1452.509919,4221
1026.711301,4222
620.3571193,4223
282.613503,4224
57.72187733,4225
-31.71250235,4226
17.51847476,4227
184.794254,4228
430.9714087,4229
705.3559956,4230
959.0855732,4231
1152.7193,4232
1264.467508,4233
1290.188922,4234
1244.903628,4235
1154.568219,4236
1049.18027,4237
955.7428692,4238
899.1520985,4239
888.4645556,4240
930.0913537,4241
1025.70231,4242
1164.769608,4243
1345.905568,4244
1559.778928,4245
1800.156586,4246
2056.685555,4247
2316.651735,4248
2558.402045,4249
2757.641631,4250
2883.475936,4251
2908.312726,4252
2812.259542,4253
2588.161562,4254
2249.563439,4255
1824.568772,4256
1358.164014,4257
901.3603354,4258
503.2133705,4259
202.8868288,4260
23.10992997,4261
-33.05228896,4262
18.56629616,4263
147.8612409,4264
317.866068,4265
492.6894962,4266
644.7486495,4267
759.1691847,4268
834.5107734,4269
880.4317868,4270
912.529742,4271
946.4948893,4272
992.7348504,4273
1053.295683,4274
1121.41413,4275
1186.650995,4276
1233.448819,4277
1252.529109,4278
1240.257837,4279
1201.760947,4280
1151.539443,4281
1108.847431,4282
1093.213702,4283
1121.062421,4284
1198.649748,4285
1322.943329,4286
1480.22659,4287
1650.173755,4288
1808.911029,4289
1934.05485,4290
2010.447461,4291
2029.622739,4292
1994.047159,4293
1912.556478,4294
1798.894286,4295
1668.500691,4296
1535.153408,4297
1406.370854,4298
1289.426344,4299
1183.765829,4300
1088.982608,4301
1004.165006,4302
929.7381558,4303
868.3205783,4304
887.2438503,4305
868.4913544,4306
876.1477595,4307
911.2840465,4308
971.0001539,4309
1048.332883,4310
1133.232759,4311
1214.384259,4312
1281.411618,4313
1326.909823,4314
1347.7909,4315
1345.621038,4316
1325.890547,4317
1297.558409,4318
1272.034478,4319
1259.523069,4320
1269.649368,4321
1309.010771,4322
1380.762732,4323
1483.532515,4324
1613.427512,4325
1763.452088,4326
1923.912589,4327
2084.864537,4328
2234.08237,4329
2361.744062,4330
2458.364362,4331
2517.558585,4332
2536.517399,4333
2516.570899,4334
2435.874477,4335
2318.215901,4336
2145.394985,4337
1933.101973,4338
1695.290247,4339
1450.744672,4340
1220.503045,4341
1028.283094,4342
895.8034811,4343
841.2597245,4344
873.4043642,4345
988.8635911,4346
1171.233089,4347
1393.634838,4348
1621.20579,4349
1819.824327,4350
1959.548472,4351
2022.370899,4352
2003.594661,4353
1913.938554,4354
1776.010364,4355
1619.852039,4356
1478.350069,4357
1379.648566,4358
1348.149034,4359
1406.757247,4360
1544.814276,4361
1767.192722,4362
2049.986304,4363
2367.327525,4364
2692.311067,4365
2998.653333,4366
3262.935381,4367
3467.016064,4368
3600.065547,4369
3659.695201,4370
3651.839888,4371
3589.332014,4372
3489.415268,4373
3370.696263,4374
3250.158496,4375
3140.833751,4376
3050.551983,4377
2981.920111,4378
2933.38511,4379
2900.993214,4380
2880.324568,4381
2868.08961,4382
2863.010739,4383
2865.837619,4384
2878.593325,4385
2903.354587,4386
2940.980347,4387
2990.194235,4388
3047.306679,4389
3106.668933,4390
3161.740012,4391
3206.476302,4392
3236.667345,4393
3250.860194,4394
3250.629947,4395
3240.131456,4396
3171.771899,4397
3075.071439,4398
2901.486301,4399
2648.208543,4400
2318.882153,4401
1922.586486,4402
1479.809179,4403
1024.153732,4404
599.1139434,4405
250.7934089,4406
18.5860903,4407
-73.64393038,4408
-23.39043643,4409
149.6584194,4410
407.3168161,4411
701.219409,4412
982.9755957,4413
1213.67926,4414
1371.287038,4415
1452.762146,4416
1472.291155,4417
1455.128163,4418
1429.577337,4419
1418.787439,4420
1434.982311,4421
1477.23609,4422
1532.780902,4423
1582.140283,4424
1605.442316,4425
1588.928165,4426
1529.200722,4427
1434.699604,4428
1323.578582,4429
1174.487735,4430
1176.850806,4431
1309.745241,4432
1575.13429,4433
1962.654502,4434
2444.174071,4435
2973.69357,4436
3492.932593,4437
3941.265317,4438
4267.409522,4439
4439.765787,4440
4452.659914,4441
4326.838374,4442
4104.085636,4443
3837.353609,4444
3577.948657,4445
3357.662277,4446
3197.098658,4447
3085.757436,4448
3000.682329,4449
2908.409569,4450
2778.58572,4451
2591.218341,4452
2342.247242,4453
2048.015858,4454
1737.472005,4455
1444.375207,4456
1198.287227,4457
1022.802742,4458
917.9066824,4459
816.034717,4460
814.1028843,4461
822.2153289,4462
816.4230647,4463
783.95419,4464
726.3198137,4465
658.0044406,4466
601.3233535,4467
579.2914976,4468
608.0851214,4469
692.055789,4470
821.5628742,4471
975.3137545,4472
1125.333298,4473
1244.207884,4474
1311.804697,4475
1326.503052,4476
1297.399517,4477
1250.523694,4478
1219.638786,4479
1234.611565,4480
1317.773808,4481
1462.286201,4482
1663.806305,4483
1880.217097,4484
2072.617255,4485
2200.016318,4486
2230.574932,4487
2149.904304,4488
1965.189777,4489
1706.068957,4490
1415.931518,4491
1144.837209,4492
936.49396,4493
821.8085779,4494
812.3632652,4495
898.601372,4496
1056.010812,4497
1252.292268,4498
1455.585164,4499
1642.475789,4500
1801.868493,4501
1935.356024,4502
2052.284297,4503
2165.220686,4504
2283.491149,4505
2408.530834,4506
2533.265905,4507
2643.444513,4508
2721.306629,4509
2753.095489,4510
2734.376943,4511
2672.568571,4512
2588.833754,4513
2512.966135,4514
2474.712879,4515
2498.707911,4516
2591.864483,4517
2745.664628,4518
2932.93177,4519
3113.740695,4520
3245.485095,4521
3291.978439,4522
3230.633803,4523
3061.082713,4524
2805.15866,4525
2502.988816,4526
2206.223861,4527
1965.3442,4528
1820.382394,4529
1792.572815,4530
1847.089261,4531
1973.677375,4532
2097.334077,4533
2171.620654,4534
2152.641541,4535
2018.953641,4536
1774.135717,4537
1448.436999,4538
1092.864944,4539
767.4259931,4540
532.5610309,4541
430.8203613,4542
483.2102986,4543
685.5859382,4544
1009.88431,4545
1419.950094,4546
1864.050665,4547
2305.606903,4548
2714.140165,4549
3072.194809,4550
3375.327513,4551
3626.331389,4552
3829.38163,4553
3985.743939,4554
4092.068932,4555
4141.457374,4556
4126.657791,4557
4044.168463,4558
3897.805734,4559
3700.506838,4560
3473.681648,4561
3244.149539,4562
3039.390322,4563
2882.313722,4564
2786.887653,4565
2755.735408,4566
2780.288667,4567
2843.415926,4568
2923.816556,4569
3001.04493,4570
3059.91234,4571
3093.226559,4572
3102.301819,4573
3095.271498,4574
3078.971375,4575
3062.619742,4576
3048.23176,4577
3031.887706,4578
3004.514668,4579
2954.59716,4580
2835.647493,4581
2663.092921,4582
2382.565645,4583
2035.491704,4584
1634.275229,4585
1209.336947,4586
798.0940193,4587
439.8462222,4588
169.3867288,4589
10.25555789,4590
-29.86518747,4591
41.4640282,4592
203.909104,4593
427.8938998,4594
682.6244898,4595
942.5319477,4596
1188.124867,4597
1410.920304,4598
1610.89204,4599
1794.152628,4600
1967.754733,4601
2136.033224,4602
2300.847484,4603
2463.537275,4604
2616.506768,4605
2755.413518,4606
2878.467659,4607
2982.365703,4608
3069.339415,4609
3144.303542,4610
3211.876651,4611
3274.106605,4612
3329.468842,4613
3373.309623,4614
3399.489602,4615
3402.657401,4616
3380.430892,4617
3334.817935,4618
3272.444375,4619
3203.50342,4620
3139.698938,4621
3091.728384,4622
3066.346363,4623
3065.938824,4624
3087.002915,4625
3121.776663,4626
3149.518791,4627
3155.662906,4628
3118.716685,4629
3002.663742,4630
2816.210243,4631
2539.322169,4632
2188.483997,4633
1786.721864,4634
1364.793626,4635
959.3682701,4636
608.4681622,4637
345.308413,4638
192.1818386,4639
156.0749119,4640
227.3677741,4641
381.8085542,4642
585.6228397,4643
802.4670052,4644
1000.367342,4645
1157.328358,4646
1264.347101,4647
1324.856933,4648
1351.738685,4649
1362.036142,4650
1371.542449,4651
1392.772399,4652
1428.643077,4653
1476.334492,4654
1528.660661,4655
1575.42216,4656
1608.313861,4657
1624.797172,4658
1627.028091,4659
1623.416323,4660
1625.520719,4661
1645.613658,4662
1692.957521,4663
1771.448707,4664
1878.914362,4665
2007.737854,4666
2146.232396,4667
2282.239319,4668
2404.326128,4669
2505.100997,4670
2580.364717,4671
2630.654047,4672
2589.547025,4673
2559.566534,4674
2468.555106,4675
2321.877617,4676
2123.341961,4677
1879.509861,4678
1561.652292,4679
1265.015089,4680
981.8947125,4681
739.7036542,4682
562.4106401,4683
465.3757266,4684
457.146905,4685
533.5815985,4686
683.6171315,4687
892.7328884,4688
1147.997976,4689
1439.743799,4690
1753.896363,4691
2090.969267,4692
2441.382728,4693
2795.537893,4694
3139.559824,4695
3453.753887,4696
3714.234369,4697
3897.183315,4698
3984.403054,4699
3968.44539,4700
3855.720191,4701
3666.553999,4702
3432.013673,4703
3188.191862,4704
2969.32957,4705
2801.123276,4706
2696.23899,4707
2653.792795,4708
2659.578872,4709
2692.821208,4710
2730.416763,4711
2753.767956,4712
2752.689018,4713
2726.772044,4714
2684.804283,4715
2641.053561,4716
2610.438194,4717
2604.313309,4718
2626.941195,4719
2674.197696,4720
2734.855166,4721
2794.004877,4722
2836.839811,4723
2847.370192,4724
2819.384635,4725
2735.247853,4726
2606.084379,4727
2423.369826,4728
2195.868535,4729
1932.862141,4730
1644.951704,4731
1343.328456,4732
1044.351741,4733
766.0656306,4734
527.5721024,4735
350.1492075,4736
248.6371276,4737
235.5678851,4738
312.9117751,4739
473.7464368,4740
700.9634647,4741
971.8606204,4742
1260.3816,4743
1540.690745,4744
1790.702105,4745
1995.031627,4746
2143.386569,4747
2231.262986,4748
2259.37289,4749
2229.854105,4750
2151.858628,4751
2030.778176,4752
1877.451007,4753
1702.781482,4754
1518.720694,4755
1338.507289,4756
1176.71646,4757
1046.73171,4758
959.7100708,4759
921.9399054,4760
933.7027262,4761
989.0100832,4762
1076.529206,4763
1185.345869,4764
1301.703052,4765
1418.303126,4766
1532.284967,4767
1646.122018,4768
1767.200684,4769
1906.079697,4770
2069.727937,4771
2261.989587,4772
2478.433125,4773
2707.314377,4774
2930.343136,4775
3125.901363,4776
3273.204121,4777
3356.277517,4778
3367.214722,4779
3313.720915,4780
3207.178453,4781
3069.410762,4782
2929.578846,4783
2806.191874,4784
2713.45327,4785
2653.406828,4786
2617.706698,4787
2588.967679,4788
2545.563373,4789
2467.510591,4790
2342.831473,4791
2170.735081,4792
1962.746279,4793
1740.314825,4794
1530.751781,4795
1359.818012,4796
1247.156195,4797
1202.889746,4798
1226.823626,4799
1308.269735,4800
1432.447464,4801
1584.300063,4802
1757.038674,4803
1938.342251,4804
2133.020376,4805
2340.983393,4806
2561.758601,4807
2791.715512,4808
3019.960014,4809
3228.086068,4810
3393.376065,4811
3493.338303,4812
3512.500334,4813
3446.314588,4814
3304.208655,4815
3107.89891,4816
2887.791626,4817
2676.71268,4818
2503.299624,4819
2386.224285,4820
2331.757692,4821
2332.605673,4822
2372.565301,4823
2429.739547,4824
2484.071151,4825
2521.173059,4826
2535.622186,4827
2531.625379,4828
2520.061727,4829
2515.248173,4830
2529.671651,4831
2570.478746,4832
2637.338977,4833
2722.207576,4834
2811.587487,4835
2890.967276,4836
2947.385964,4837
2974.13022,4838
2972.291449,4839
2910.095455,4840
2814.959065,4841
2653.876703,4842
2435.889989,4843
2160.409938,4844
1834.694268,4845
1470.804964,4846
1088.584532,4847
716.3157652,4848
388.0264147,4849
138.1988267,4850
-5.663392849,4851
-21.11738192,4852
90.47102037,4853
318.1090454,4854
634.4869907,4855
1001.08535,4856
1377.152654,4857
1724.05791,4858
2013.338704,4859
2225.550252,4860
2355.979083,4861
2409.327524,4862
2400.832273,4863
2335.369173,4864
2239.103113,4865
2115.595754,4866
1976.842218,4867
1831.110048,4868
1684.227503,4869
1541.243357,4870
1407.878788,4871
1291.061636,4872
1198.182833,4873
1136.342097,4874
1110.132806,4875
1120.482003,4876
1163.632043,4877
1231.466339,4878
1318.517643,4879
1412.814273,4880
1509.87873,4881
1606.30324,4882
1700.213903,4883
1793.457022,4884
1888.776895,4885
1987.951342,4886
2090.713005,4887
2192.878253,4888
2286.507581,4889
2361.550256,4890
2402.231879,4891
2381.817329,4892
2291.297481,4893
2139.753528,4894
1941.526533,4895
1717.854061,4896
1496.657445,4897
1307.58396,4898
1178.726734,4899
1128.503031,4900
1164.035933,4901
1277.139293,4902
1436.163713,4903
1633.475741,4904
1823.928873,4905
1976.772116,4906
2071.234223,4907
2101.036751,4908
2112.744731,4909
2091.932623,4910
2108.587243,4911
2183.704121,4912
2332.664705,4913
2556.509541,4914
2837.761043,4915
3141.982175,4916
3424.595334,4917
3641.020146,4918
3757.306961,4919
3669.489761,4920
3573.595989,4921
3397.989759,4922
3184.230628,4923
2977.572585,4924
2816.503624,4925
2724.461439,4926
2705.724435,4927
2746.317061,4928
2819.433574,4929
2893.733993,4930
2942.196412,4931
2949.177881,4932
2913.923601,4933
2849.789586,4934
2768.495325,4935
2689.458952,4936
2616.936458,4937
2544.421949,4938
2455.496419,4939
2324.83915,4940
2131.438274,4941
1859.719921,4942
1512.754069,4943
1113.192715,4944
700.833724,4945
325.9922731,4946
39.23534833,4947
-120.1757296,4948
-133.6419404,4949
-7.937173122,4950
226.1696782,4951
524.5516421,4952
835.9105546,4953
1118.93119,4954
1349.199342,4955
1525.766878,4956
1672.676056,4957
1807.907811,4958
1970.337686,4959
2153.209397,4960
2363.428832,4961
2558.71366,4962
2700.66007,4963
2744.417471,4964
2652.289209,4965
2409.780623,4966
2032.221456,4967
1565.4807,4968
1077.875503,4969
645.50469,4970
335.0073894,4971
188.3754175,4972
213.807636,4973
384.902503,4974
648.2313637,4975
937.1405443,4976
1190.046314,4977
1365.344056,4978
1447.1018,4979
1451.928624,4980
1416.405405,4981
1387.137493,4982
1403.609717,4983
1487.874345,4984
1635.409109,4985
1818.129884,4986
1989.451021,4987
2098.990613,4988
2109.833531,4989
2005.874256,4990
1804.007578,4991
1549.550574,4992
1308.813058,4993
1154.503241,4994
1155.576005,4995
1335.128573,4996
1701.807208,4997
2211.589013,4998
2794.909253,4999
3368.927536,5000
3853.765471,5001
4188.542267,5002
4343.118196,5003
4322.633754,5004
4163.854915,5005
3924.465741,5006
3668.216718,5007
3449.785913,5008
3303.119816,5009
3235.954419,5010
3231.493456,5011
3256.319439,5012
3272.041763,5013
3247.344063,5014
3167.170277,5015
3036.724428,5016
2879.467206,5017
2729.947707,5018
2623.664978,5019
2586.744778,5020
2627.268717,5021
2737.412712,5022
2887.637322,5023
3042.695791,5024
3165.347381,5025
3227.645329,5026
3217.504643,5027
3141.38674,5028
3021.616449,5029
2879.123806,5030
2743.003985,5031
2623.125753,5032
2508.38573,5033
2357.085677,5034
2192.464761,5035
1960.985758,5036
1647.594384,5037
1255.10484,5038
807.0506537,5039
346.7075567,5040
-70.51253986,5041
-389.1104123,5042
-566.5861548,5043
-583.9163891,5044
-450.2863262,5045
-201.5614701,5046
108.3356983,5047
419.4082625,5048
679.2656286,5049
853.8406887,5050
991.8444933,5051
1073.078423,5052
1192.392032,5053
1385.752407,5054
1684.624169,5055
2099.0308,5056
2599.377563,5057
3129.652645,5058
3606.055475,5059
3937.103713,5060
4049.948957,5061
3900.410185,5062
3495.599152,5063
2881.827264,5064
2146.525105,5065
1396.215588,5066
733.9008378,5067
239.9755654,5068
-41.58969489,5069
-109.0168191,5070
1.242392125,5071
226.5769059,5072
495.0949387,5073
743.1445818,5074
929.147924,5075
1039.840333,5076
1089.583403,5077
1111.294113,5078
1144.173093,5079
1219.884012,5080
1352.736342,5081
1534.843594,5082
1738.482469,5083
1924.093307,5084
2051.527714,5085
2091.697261,5086
2034.627736,5087
1892.801433,5088
1698.060314,5089
1493.501461,5090
1322.866568,5091
1219.551522,5092
1198.907618,5093
1255.385412,5094
1369.441024,5095
1505.420627,5096
1631.685077,5097
1722.215038,5098
1765.246988,5099
1767.142694,5100
1748.02047,5101
1738.210995,5102
1765.883459,5103
1852.95783,5104
2006.007008,5105
2216.503851,5106
2461.746842,5107
2711.011546,5108
2931.481912,5109
3094.580117,5110
3183.195213,5111
3191.495651,5112
3126.643531,5113
3006.083764,5114
2852.025486,5115
2686.510572,5116
2528.749503,5117
2391.531167,5118
2281.717841,5119
2200.995258,5120
2148.721151,5121
2124.405786,5122
2127.83582,5123
2160.84101,5124
2224.830369,5125
2318.931364,5126
2439.856906,5127
2578.607615,5128
2623.375937,5129
2724.508771,5130
2760.382112,5131
2722.683487,5132
2606.653626,5133
2418.283216,5134
2176.589304,5135
1912.215765,5136
1661.237898,5137
1457.301336,5138
1324.928932,5139
1271.047415,5140
1284.31375,5141
1334.166565,5142
1386.56513,5143
1402.798327,5144
1355.263667,5145
1256.57093,5146
1066.490166,5147
835.7423599,5148
601.0848324,5149
401.8180554,5150
270.3216961,5151
224.2631255,5152
262.7961981,5153
366.9574441,5154
505.4519213,5155
642.5601063,5156
747.1274863,5157
801.9335185,5158
806.6363904,5159
777.2007243,5160
744.094984,5161
742.832978,5162
824.9192957,5163
992.8626161,5164
1271.73592,5165
1639.174589,5166
2060.095747,5167
2489.973813,5168
2881.15711,5169
3191.447151,5170
3391.584779,5171
3470.72291,5172
3437.782986,5173
3318.873676,5174
3150.716071,5175
2972.371896,5176
2817.228806,5177
2706.632526,5178
2647.091633,5179
2631.492529,5180
2643.200554,5181
2662.473375,5182
2672.626782,5183
2664.944654,5184
2640.882127,5185
2610.866474,5186
2590.853613,5187
2596.822059,5188
2629.924469,5189
2691.050343,5190
2759.615831,5191
2810.246914,5192
2814.842838,5193
2749.590391,5194
2601.352773,5195
2372.832689,5196
2084.724548,5197
1770.860697,5198
1473.32887,5199
1231.862835,5200
1075.636399,5201
1015.115501,5202
1042.276348,5203
1130.454962,5204
1243.637727,5205
1343.23694,5206
1399.462339,5207
1396.719317,5208
1337.47607,5209
1240.806808,5210
1146.694628,5211
1085.023803,5212
1093.909259,5213
1189.63746,5214
1370.974763,5215
1620.566015,5216
1907.971699,5217
2199.910649,5218
2468.061937,5219
2698.535785,5220
2881.102165,5221
3030.936829,5222
3161.334029,5223
3290.037575,5224
3430.42564,5225
3585.147664,5226
3743.866079,5227
3885.515608,5228
3984.208876,5229
4016.934091,5230
3970.758308,5231
3847.459885,5232
3664.282488,5233
3450.600718,5234
3241.406013,5235
3069.359649,5236
2957.502805,5237
2914.487912,5238
2933.481458,5239
2994.893654,5240
3120.252032,5241
3189.459423,5242
3227.811489,5243
3226.522642,5244
3189.187363,5245
3129.632302,5246
3067.123012,5247
3020.451489,5248
3002.92689,5249
3017.700671,5250
3058.503701,5251
3110.184629,5252
3154.7577,5253
3174.556141,5254
3159.064365,5255
3081.665317,5256
2949.025185,5257
2740.690602,5258
2470.271055,5259
2137.726344,5260
1761.343961,5261
1358.839658,5262
950.5589396,5263
560.8151606,5264
216.9973271,5265
-54.21754448,5266
-230.9661659,5267
-301.2916017,5268
-265.9982797,5269
-139.482161,5270
52.60068617,5271
277.7004148,5272
502.484194,5273
698.7413264,5274
847.8624606,5275
943.2101668,5276
989.406899,5277
999.4557975,5278
990.1409824,5279
977.2056506,5280
971.3354236,5281
976.1765991,5282
999.9036384,5283
1039.744755,5284
1103.382504,5285
1198.427991,5286
1340.581428,5287
1533.647537,5288
1791.153019,5289
2110.120857,5290
2478.577986,5291
2873.165111,5292
3260.216571,5293
3600.777356,5294
3858.172605,5295
4006.007503,5296
4034.351398,5297
3952.361002,5298
3786.566526,5299
3575.204504,5300
3360.013742,5301
3177.543644,5302
3052.10105,5303
2991.980324,5304
2989.727743,5305
3026.135401,5306
3076.725281,5307
3118.911551,5308
3137.953863,5309
3130.176055,5310
3102.47722,5311
3069.393323,5312
3049.043417,5313
3054.662054,5314
3093.542298,5315
3162.242722,5316
3248.42127,5317
3333.816988,5318
3399.312045,5319
3429.818822,5320
3418.893392,5321
3369.364612,5322
3282.6161,5323
3170.460535,5324
3036.082659,5325
2877.753442,5326
2687.476322,5327
2462.630872,5328
2190.233217,5329
1871.281809,5330
1514.149968,5331
1138.288112,5332
773.979282,5333
457.8440238,5334
225.4017326,5335
102.8386555,5336
100.3475652,5337
209.193194,5338
402.6511067,5339
641.7898475,5340
883.5793525,5341
1089.67062,5342
1234.452125,5343
1308.366114,5344
1318.979387,5345
1286.182555,5346
1236.122755,5347
1193.336615,5348
1174.443465,5349
1184.490771,5350
1216.624311,5351
1268.066926,5352
1324.677306,5353
1321.580496,5354
1349.983129,5355
1351.972518,5356
1342.565397,5357
1336.733622,5358
1348.455406,5359
1387.791986,5360
1457.042832,5361
1552.031589,5362
1662.259605,5363
1772.954465,5364
1869.285384,5365
1939.433021,5366
1977.302409,5367
1983.042658,5368
1963.229302,5369
1928.177969,5370
1889.50929,5371
1856.832403,5372
1836.340314,5373
1830.145233,5374
1835.934272,5375
1849.274406,5376
1864.963323,5377
1877.725185,5378
1885.306338,5379
1886.946237,5380
1884.339393,5381
1879.786465,5382
1875.919423,5383
1873.459749,5384
1871.417554,5385
1866.130993,5386
1852.288592,5387
1824.38246,5388
1777.620044,5389
1768.888275,5390
1677.167683,5391
1564.171955,5392
1431.710406,5393
1285.059327,5394
1130.707349,5395
975.0217884,5396
826.5131479,5397
692.9593764,5398
581.5093186,5399
498.3355027,5400
449.2260519,5401
437.8478803,5402
466.9829756,5403
536.7140871,5404
644.7548125,5405
787.0814593,5406
956.186775,5407
1143.740699,5408
1338.92724,5409
1530.860962,5410
1709.090238,5411
1863.868429,5412
1987.348911,5413
2075.908273,5414
2129.149635,5415
2151.400319,5416
2152.366777,5417
2142.071506,5418
2134.742461,5419
2142.06984,5420
2172.999527,5421
2235.453405,5422
2328.71132,5423
2448.534214,5424
2586.20932,5425
2728.584032,5426
2862.590177,5427
2976.982248,5428
3063.411816,5429
3137.502241,5430
3159.426838,5431
3152.975114,5432
3125.272603,5433
3084.715983,5434
3039.671362,5435
2996.907794,5436
2961.039255,5437
2933.902984,5438
2915.158399,5439
2903.227643,5440
2895.876734,5441
2891.752974,5442
2890.221575,5443
2892.296016,5444
2899.273827,5445
2913.234437,5446
2933.698663,5447
2968.095946,5448
2887.226512,5449
2888.888087,5450
2843.251112,5451
2752.198379,5452
2618.422457,5453
2450.74039,5454
2266.344231,5455
2090.697878,5456
1953.179698,5457
1882.654507,5458
1897.964651,5459
2004.427393,5460
2193.878543,5461
2438.911141,5462
2703.828821,5463
2948.894401,5464
3136.228315,5465
3238.380646,5466
3242.935973,5467
3150.828047,5468
2975.397014,5469
2737.53469,5470
2459.322118,5471
2159.461325,5472
1852.662244,5473
1548.639889,5474
1251.734178,5475
967.1362638,5476
700.67986,5477
461.5776237,5478
342.9386436,5479
191.3582733,5480
107.8631639,5481
99.84866682,5482
165.8005823,5483
294.0342338,5484
463.8399791,5485
648.8626566,5486
821.9265289,5487
960.1262326,5488
1048.937224,5489
1088.778192,5490
1088.894502,5491
1068.040844,5492
1048.269659,5493
1048.604797,5494
1078.768973,5495
1138.962978,5496
1217.989881,5497
1297.080141,5498
1352.764974,5499
1365.255197,5500
1321.459857,5501
1222.135627,5502
1080.689426,5503
921.5485496,5504
776.1887858,5505
673.5256,5506
636.2383599,5507
673.8509057,5508
781.116831,5509
940.6392348,5510
1126.466098,5511
1309.631344,5512
1465.214643,5513
1577.431045,5514
1641.916769,5515
1665.396333,5516
1664.712062,5517
1659.266385,5518
1669.700593,5519
1710.473064,5520
1788.222011,5521
1900.330691,5522
2038.719139,5523
2192.519077,5524
2353.354284,5525
2509.087028,5526
2660.361296,5527
2803.906667,5528
2939.93947,5529
3069.126666,5530
3190.141076,5531
3298.498374,5532
3386.939655,5533
3447.153222,5534
3472.244067,5535
3459.159221,5536
3410.307166,5537
3333.85165,5538
3242.539889,5539
3151.333859,5540
3073.950558,5541
3021.761783,5542
2999.086046,5543
3005.322542,5544
3034.022886,5545
3074.220604,5546
3117.215406,5547
3152.393018,5548
3176.052995,5549
3187.642492,5550
3190.713783,5551
3191.371063,5552
3183.105686,5553
3170.098482,5554
3136.91418,5555
3069.981884,5556
2953.604949,5557
2773.426932,5558
2519.861076,5559
2197.010056,5560
1818.698353,5561
1412.653666,5562
1015.253056,5563
664.5735173,5564
394.2573154,5565
227.4339313,5566
172.6694945,5567
222.0386905,5568
353.5329364,5569
535.5863358,5570
733.8025699,5571
917.7320847,5572
1066.168914,5573
1170.130106,5574
1232.461363,5575
1264.682333,5576
1282.361771,5577
1299.757036,5578
1325.670114,5579
1361.19574,5580
1456.461595,5581
1567.500492,5582
1743.064392,5583
1971.387982,5584
2246.262307,5585
2491.848208,5586
2843.265374,5587
3201.425518,5588
3537.769125,5589
3820.209632,5590
4019.406555,5591
4115.378372,5592
4102.543059,5593
3991.707405,5594
3808.359819,5595
3587.615924,5596
3367.04831,5597
3179.167658,5598
3045.379267,5599
2972.816638,5600
2954.679412,5601
2973.79268,5602
2971.633977,5603
2944.531572,5604
2838.52919,5605
2646.098244,5606
2371.581385,5607
2032.947447,5608
1660.497687,5609
1292.125972,5610
966.2765581,5611
715.8788513,5612
559.8760089,5613
501.8065244,5614
526.7270859,5615
607.6789372,5616
712.3360934,5617
807.0991016,5618
869.2122823,5619
887.8251423,5620
865.6523324,5621
816.9724004,5622
762.6971532,5623
723.9788998,5624
716.1380058,5625
744.5965659,5626
803.6926476,5627
878.5823054,5628
949.7712141,5629
998.5401338,5630
1012.274005,5631
987.5871312,5632
934.9071708,5633
869.997843,5634
816.8608768,5635
796.2103478,5636
822.5992728,5637
899.8508173,5638
1020.745792,5639
1168.326228,5640
1320.652026,5641
1455.340062,5642
1554.150616,5643
1609.804422,5644
1624.594436,5645
1613.340314,5646
1597.773862,5647
1605.354613,5648
1658.793575,5649
1773.943615,5650
1954.417618,5651
2192.988204,5652
2467.434668,5653
2751.957443,5654
3016.597431,5655
3237.906347,5656
3396.566128,5657
3487.077823,5658
3513.350136,5659
3487.900493,5660
3429.183065,5661
3356.982633,5662
3288.045076,5663
3232.960629,5664
3194.944911,5665
3170.644389,5666
3144.275338,5667
3103.79038,5668
3032.743286,5669
2919.080275,5670
2757.889269,5671
2551.028343,5672
2306.836421,5673
2037.612563,5674
1759.109738,5675
1487.83964,5676
1238.934419,5677
1022.550197,5678
844.9175838,5679
733.8026033,5680
658.2273946,5681
634.6855836,5682
642.2634958,5683
677.9574197,5684
736.5261198,5685
814.3580412,5686
950.3273837,5687
1053.000927,5688
1166.277561,5689
1289.457454,5690
1419.753716,5691
1554.545503,5692
1688.062106,5693
1815.424271,5694
1929.885097,5695
2027.483686,5696
2107.228232,5697
2172.446005,5698
2230.466297,5699
2268.033919,5700
2313.135648,5701
2351.946663,5702
2407.022043,5703
2476.563346,5704
2572.478739,5705
2690.189025,5706
2824.361139,5707
2969.21597,5708
3117.138124,5709
3258.258322,5710
3381.191266,5711
3474.739891,5712
3530.84498,5713
3543.68997,5714
3515.080379,5715
3451.929189,5716
3365.704905,5717
3270.267756,5718
3179.217933,5719
3103.38898,5720
3049.072533,5721
3017.362323,5722
2908.028297,5723
2886.121508,5724
2850.684769,5725
2801.879476,5726
2740.204638,5727
2674.093384,5728
2613.819239,5729
2572.625561,5730
2563.083016,5731
2594.014737,5732
2665.783048,5733
2770.055842,5734
2891.051848,5735
3008.879919,5736
3104.056464,5737
3161.983972,5738
3176.209985,5739
3149.637704,5740
3093.421391,5741
3023.894358,5742
2958.379408,5743
2910.991818,5744
2882.39499,5745
2869.246099,5746
2854.777413,5747
2803.055352,5748
2705.158771,5749
2530.143509,5750
2276.020551,5751
1951.890753,5752
1579.701648,5753
1194.54842,5754
838.3328857,5755
625.9646677,5756
443.5328395,5757
385.8669903,5758
454.890629,5759
633.3664793,5760
889.9483294,5761
1183.886798,5762
1472.016669,5763
1716.860741,5764
1889.902795,5765
1978.403907,5766
1983.128856,5767
1915.943305,5768
1798.395825,5769
1653.892616,5770
1504.114787,5771
1366.085664,5772
1250.445759,5773
1161.181384,5774
1096.953034,5775
1053.000316,5776
1023.642973,5777
1004.210149,5778
992.4510464,5779
988.4301932,5780
994.1005446,5781
1011.681433,5782
1042.25257,5783
1091.835877,5784
1158.223096,5785
1245.332281,5786
1352.834538,5787
1479.76968,5788
1623.471741,5789
1781.88115,5790
1949.535414,5791
2120.377558,5792
2287.742366,5793
2443.821598,5794
2583.846732,5795
2706.01491,5796
2811.109953,5797
2902.009199,5798
2985.279108,5799
3064.928919,5800
3144.690415,5801
3225.322636,5802
3303.298472,5803
3371.175374,5804
3418.389297,5805
3435.146801,5806
3414.539535,5807
3354.589432,5808
3259.630389,5809
3139.747869,5810
3008.172278,5811
2879.197084,5812
2764.79735,5813
2673.115455,5814
2606.551068,5815
2562.834547,5816
2535.631634,5817
2517.1343,5818
2499.903927,5819
2479.372677,5820
2454.144107,5821
2426.290058,5822
2400.296017,5823
2381.551268,5824
2373.603814,5825
2378.461132,5826
2421.385891,5827
2447.661808,5828
2474.57462,5829
2495.831626,5830
2506.616687,5831
2504.864804,5832
2491.678071,5833
2471.053465,5834
2448.969322,5835
2431.501182,5836
2423.779365,5837
2428.418126,5838
2445.268154,5839
2471.499923,5840
2502.590998,5841
2533.590869,5842
2560.377134,5843
2581.009325,5844
2595.157527,5845
2606.178561,5846
2617.081615,5847
2632.648214,5848
2656.09189,5849
2688.932882,5850
2730.817705,5851
2779.385294,5852
2830.962853,5853
2881.944142,5854
2928.993437,5855
2969.57263,5856
3003.213697,5857
3030.072725,5858
3051.346285,5859
3068.449367,5860
3082.332944,5861
3039.100212,5862
2969.260908,5863
2813.286243,5864
2572.237279,5865
2248.635995,5866
1853.5944,5867
1411.433659,5868
959.2248646,5869
542.4848856,5870
206.3240925,5871
-13.49674555,5872
-98.65551897,5873
-52.41090828,5874
100.619891,5875
320.4892392,5876
560.0536238,5877
775.45592,5878
934.5277638,5879
1022.610805,5880
1043.13129,5881
1017.069663,5882
972.1457215,5883
939.9898235,5884
946.7424106,5885
1009.588109,5886
1131.47619,5887
1307.789707,5888
1525.822812,5889
1774.286581,5890
2035.192839,5891
2301.836425,5892
2565.215288,5893
2818.409188,5894
3054.138381,5895
3263.536756,5896
3434.21498,5897
3552.504265,5898
3604.947925,5899
3583.397666,5900
3487.378558,5901
3325.594698,5902
3117.100859,5903
2886.690787,5904
2661.98563,5905
2467.96187,5906
2322.402208,5907
2233.106086,5908
2197.447006,5909
2203.944865,5910
2236.061334,5911
2276.34758,5912
2310.655009,5913
2331.162376,5914
2337.002128,5915
2328.158825,5916
2309.427369,5917
2281.483489,5918
2240.578607,5919
2180.047613,5920
2090.527651,5921
1963.304526,5922
1793.464907,5923
1581.76564,5924
1351.96921,5925
1122.932832,5926
914.9652464,5927
748.7996054,5928
638.9786222,5929
592.2777483,5930
600.0200748,5931
646.2345834,5932
708.2428426,5933
799.3507172,5934
828.6517072,5935
826.7183058,5936
797.8473286,5937
755.4563236,5938
717.5067666,5939
701.0979293,5940
717.2094277,5941
767.6841594,5942
844.4906438,5943
940.1562958,5944
1037.763829,5945
1131.801589,5946
1219.793518,5947
1308.002284,5948
1410.826861,5949
1546.97911,5950
1735.273671,5951
1980.128897,5952
2282.028718,5953
2620.327544,5954
2961.84278,5955
3268.942469,5956
3500.762449,5957
3626.14547,5958
3627.253318,5959
3504.554394,5960
3277.240549,5961
2977.828522,5962
2646.377984,5963
2321.631438,5964
2034.437317,5965
1802.692101,5966
1627.218225,5967
1496.263295,5968
1378.100449,5969
1258.724619,5970
1109.636006,5971
927.4608309,5972
720.2014897,5973
507.3271936,5974
316.0021364,5975
174.6095094,5976
105.4598663,5977
118.7572175,5978
216.3647836,5979
383.2441583,5980
599.1685928,5981
840.4619556,5982
1083.718406,5983
1312.20684,5984
1518.860093,5985
1704.091864,5986
1874.230688,5987
2037.652435,5988
2197.544565,5989
2352.763777,5990
2495.65259,5991
2613.273004,5992
2692.963098,5993
2724.518783,5994
2703.2668,5995
2633.121475,5996
2525.907731,5997
2398.642736,5998
2270.562562,5999
2160.482866,6000
2081.849689,6001
2041.663744,6002
2039.685472,6003
2070.652753,6004
2125.947883,6005
2197.749098,6006
2279.500902,6007
2367.19545,6008
2461.459355,6009
2562.05742,6010
2669.727595,6011
2783.471608,6012
2898.614344,6013
3006.737716,6014
3097.438766,6015
3153.725159,6016
3164.98891,6017
3120.852669,6018
3017.075769,6019
2858.394732,6020
2672.330602,6021
2471.966998,6022
2297.051741,6023
2171.869772,6024
2117.866013,6025
2146.623489,6026
2256.736557,6027
2434.646703,6028
2650.755532,6029
2869.240382,6030
3050.14735,6031
3156.990837,6032
3164.786024,6033
3065.096661,6034
2865.134074,6035
2586.25818,6036
2261.704766,6037
1927.110327,6038
1616.78134,6039
1357.40128,6040
1164.1749,6041
1040.747245,6042
981.1372475,6043
974.3465245,6044
1006.886012,6045
1069.743913,6046
1156.66504,6047
1267.208423,6048
1401.989985,6049
1561.756939,6050
1743.995079,6051
1939.490581,6052
2138.687322,6053
2323.793707,6054
2479.728048,6055
2593.026657,6056
2654.670939,6057
2665.240622,6058
2632.134824,6059
2569.551002,6060
2486.108795,6061
2418.976009,6062
2370.242263,6063
2346.44348,6064
2345.096884,6065
2357.583204,6066
2371.335733,6067
2372.560192,6068
2350.751188,6069
2300.782379,6070
2224.433863,6071
2130.003078,6072
2031.398601,6073
1945.936915,6074
1891.875324,6075
1888.082688,6076
1941.193859,6077
2055.652666,6078
2224.215761,6079
2430.449354,6080
2653.789688,6081
2871.730419,6082
3062.881984,6083
3210.198086,6084
3303.582396,6085
3341.224315,6086
3329.324736,6087
3280.273436,6088
3209.720025,6089
3133.240191,6090
3063.373231,6091
3007.326485,6092
2966.526804,6093
2937.919763,6094
2914.840141,6095
2890.566181,6096
2860.371787,6097
2822.51387,6098
2779.044916,6099
2735.296096,6100
2697.927897,6101
2672.772433,6102
2664.084026,6103
2671.898431,6104
2693.050651,6105
2721.254352,6106
2747.377488,6107
2747.985381,6108
2716.773612,6109
2632.098571,6110
2484.262556,6111
2272.158005,6112
2001.144147,6113
1686.321685,6114
1352.45268,6115
1031.536787,6116
759.7710102,6117
572.6495415,6118
498.5167011,6119
553.0489971,6120
736.1413779,6121
1031.759442,6122
1408.289399,6123
1823.212751,6124
2230.503164,6125
2586.421123,6126
2857.433473,6127
3025.705932,6128
3096.201105,6129
3089.017711,6130
3030.255781,6131
2959.73657,6132
2904.453501,6133
2884.438007,6134
2907.525034,6135
2967.746059,6136
3047.601698,6137
3123.419054,6138
3172.20914,6139
3178.10606,6140
3136.661557,6141
3055.913237,6142
2954.051768,6143
2854.429504,6144
2779.335643,6145
2744.238945,6146
2754.011002,6147
2802.059755,6148
2872.495158,6149
2901.163992,6150
2913.587103,6151
2847.226772,6152
2694.932705,6153
2459.955041,6154
2159.263917,6155
1820.7313,6156
1480.193644,6157
1173.949794,6158
932.4814326,6159
775.1144159,6160
705.0766496,6161
712.4751094,6162
776.0849006,6163
869.2140517,6164
966.9440209,6165
1050.252957,6166
1109.932377,6167
1148.206145,6168
1175.887054,6169
1208.019112,6170
1259.526093,6171
1340.648213,6172
1453.090068,6173
1589.73726,6174
1737.199154,6175
1876.685357,6176
1990.59869,6177
2064.23614,6178
2089.048681,6179
2064.397758,6180
1997.131148,6181
1897.991209,6182
1777.245096,6183
1657.99719,6184
1546.698576,6185
1450.856928,6186
1373.282672,6187
1360.940413,6188
1327.281851,6189
1319.613553,6190
1338.129826,6191
1382.339193,6192
1451.927179,6193
1545.613066,6194
1659.140482,6195
1786.41501,6196
1919.449845,6197
2049.050852,6198
2167.480801,6199
2270.126348,6200
2356.555558,6201
2428.165334,6202
2490.027764,6203
2545.046099,6204
2613.3151,6205
2654.495831,6206
2681.023547,6207
2684.527103,6208
2655.221195,6209
2584.927876,6210
2469.803443,6211
2313.235353,6212
2125.403805,6213
1922.444782,6214
1724.566896,6215
1551.032626,6216
1417.720042,6217
1334.131736,6218
1302.643642,6219
1318.429321,6220
1371.728037,6221
1450.588252,6222
1542.665397,6223
1640.947104,6224
1738.755965,6225
1836.247491,6226
1933.488981,6227
2031.134781,6228
2128.820617,6229
2223.599861,6230
2310.435929,6231
2384.748904,6232
2440.037392,6233
2473.368009,6234
2484.596054,6235
2476.383447,6236
2454.949901,6237
2428.281605,6238
2404.07978,6239
2387.919503,6240
2382.120719,6241
2385.742256,6242
2395.180182,6243
2405.507693,6244
2412.325645,6245
2413.047283,6246
2407.519251,6247
2398.448808,6248
2390.208414,6249
2387.746239,6250
2395.51973,6251
2415.455867,6252
2447.550442,6253
2488.914153,6254
2535.008247,6255
2574.545908,6256
2592.179194,6257
2585.294836,6258
2537.806675,6259
2450.653527,6260
2326.056056,6261
2172.050968,6262
1999.77625,6263
1823.626984,6264
1659.674933,6265
1521.831256,6266
1420.158023,6267
1358.012028,6268
1332.117395,6269
1335.638991,6270
1347.86203,6271
1379.836803,6272
1413.675417,6273
1446.229099,6274
1478.175473,6275
1512.752991,6276
1555.187111,6277
1608.362402,6278
1671.543885,6279
1740.529162,6280
1806.963128,6281
1859.697037,6282
1889.06412,6283
1888.676843,6284
1857.291674,6285
1800.041201,6286
1727.781367,6287
1653.487168,6288
1591.574387,6289
1553.517642,6290
1546.167561,6291
1569.730315,6292
1619.541146,6293
1685.744806,6294
1755.804661,6295
1817.919046,6296
1862.466069,6297
1884.560886,6298
1882.122604,6299
1858.267945,6300
1817.924493,6301
1766.911883,6302
1711.635701,6303
1657.240379,6304
1606.77278,6305
1562.619504,6306
1525.08189,6307
1493.953294,6308
1470.004615,6309
1453.667527,6310
1446.725504,6311
1451.051154,6312
1468.280213,6313
1499.113676,6314
1542.833896,6315
1596.228528,6316
1655.332309,6317
1712.979784,6318
1762.7811,6319
1798.038506,6320
1813.121652,6321
1806.125253,6322
1777.019869,6323
1729.24758,6324
1668.92983,6325
1604.67619,6326
1544.903018,6327
1498.813944,6328
1475.297537,6329
1480.244555,6330
1518.613944,6331
1592.024282,6332
1698.268103,6333
1831.94333,6334
1985.275561,6335
2147.20397,6336
2306.10237,6337
2450.310252,6338
2569.288816,6339
2655.575531,6340
2705.2207,6341
2719.096556,6342
2702.264955,6343
2663.459807,6344
2612.961224,6345
2561.755263,6346
2518.306796,6347
2457.142681,6348
2413.221154,6349
2349.210339,6350
2260.841887,6351
2143.167666,6352
1994.48107,6353
1819.405502,6354
1630.41701,6355
1445.560214,6356
1286.043624,6357
1170.627052,6358
1115.261288,6359
1117.015261,6360
1172.272047,6361
1265.903754,6362
1377.299351,6363
1508.768031,6364
1597.590492,6365
1657.63785,6366
1686.612259,6367
1689.378048,6368
1676.476936,6369
1660.94497,6370
1653.505653,6371
1662.896684,6372
1691.880149,6373
1738.497241,6374
1797.081179,6375
1860.272393,6376
1893.58627,6377
1945.544279,6378
1988.188838,6379
2022.833265,6380
2052.218719,6381
2081.498821,6382
2114.153448,6383
2152.812868,6384
2197.936879,6385
2248.042688,6386
2299.850341,6387
2349.090081,6388
2392.296842,6389
2426.151902,6390
2449.200691,6391
2461.43806,6392
2465.047582,6393
2463.165067,6394
2459.895586,6395
2458.020624,6396
2461.27922,6397
2469.260394,6398
2481.191454,6399
2493.914903,6400
2501.972289,6401
2502.765644,6402
2492.886883,6403
2472.75604,6404
2445.912936,6405
2419.406713,6406
2402.654705,6407
2402.210249,6408
2426.894192,6409
2478.779452,6410
2555.208335,6411
2649.064272,6412
2748.375971,6413
2838.16336,6414
2900.329189,6415
2895.740399,6416
2832.047774,6417
2679.469277,6418
2448.574592,6419
2156.790916,6420
1828.467269,6421
1495.204114,6422
1190.299903,6423
945.7958513,6424
784.7584031,6425
718.3189661,6426
741.7361425,6427
837.3303746,6428
976.3181742,6429
1126.693288,6430
1258.933808,6431
1352.104127,6432
1397.4419,6433
1398.788522,6434
1370.118616,6435
1330.469684,6436
1298.954989,6437
1289.984222,6438
1309.512962,6439
1354.002314,6440
1413.314942,6441
1472.137093,6442
1516.189477,6443
1533.910364,6444
1521.411192,6445
1480.521718,6446
1421.629986,6447
1355.579827,6448
1295.557351,6449
1251.733656,6450
1228.527249,6451
1226.024738,6452
1239.830141,6453
1262.044123,6454
1284.997079,6455
1302.298924,6456
1311.01426,6457
1311.707739,6458
1308.107731,6459
1389.891536,6460
1392.590823,6461
1402.796496,6462
1419.217027,6463
1439.465122,6464
1457.760551,6465
1468.742585,6466
1468.012309,6467
1453.292278,6468
1425.782417,6469
1390.151747,6470
1352.801778,6471
1320.228752,6472
1298.764326,6473
1292.319659,6474
1300.999844,6475
1321.906477,6476
1353.25901,6477
1388.138061,6478
1424.047702,6479
1459.310639,6480
1493.54569,6481
1528.986146,6482
1567.609001,6483
1609.966339,6484
1654.922884,6485
1698.916442,6486
1736.514526,6487
1762.464993,6488
1772.850463,6489
1767.450664,6490
1749.497552,6491
1725.593694,6492
1706.39049,6493
1702.542872,6494
1722.416356,6495
1771.604196,6496
1849.527901,6497
1948.735481,6498
2057.698954,6499
2162.171283,6500
2248.217042,6501
2305.129236,6502
2328.877187,6503
2320.357124,6504
2287.938776,6505
2242.394073,6506
2197.190095,6507
2163.543191,6508
2148.014797,6509
2153.88638,6510
2179.345686,6511
2218.94104,6512
2266.132631,6513
2314.381128,6514
2360.191156,6515
2402.697005,6516
2442.305245,6517
2482.189273,6518
2527.143446,6519
2578.706356,6520
2636.323681,6521
2698.175743,6522
2759.060441,6523
2812.234067,6524
2852.080353,6525
2875.155899,6526
2880.802142,6527
2871.163537,6528
2850.235814,6529
2819.759767,6530
2782.705715,6531
2737.763253,6532
2681.618426,6533
2610.442283,6534
2519.572469,6535
2406.019373,6536
2269.78455,6537
2115.210194,6538
1950.644673,6539
1788.853424,6540
1643.678473,6541
1527.497345,6542
1449.402912,6543
1411.868035,6544
1411.288077,6545
1438.074482,6546
1479.240167,6547
1520.465451,6548
1549.948674,6549
1560.785487,6550
1550.81109,6551
1525.053424,6552
1491.592532,6553
1460.859217,6554
1442.31844,6555
1438.816634,6556
1452.040127,6557
1506.696896,6558
1543.637833,6559
1588.998236,6560
1637.037049,6561
1685.406369,6562
1736.596623,6563
1795.665737,6564
1867.779883,6565
1956.607129,6566
2063.064555,6567
2181.550157,6568
2303.267033,6569
2391.238027,6570
2482.522419,6571
2543.6196,6572
2567.998461,6573
2555.785934,6574
2512.181111,6575
2445.056524,6576
2365.095388,6577
2282.830155,6578
2205.990153,6579
2139.788167,6580
2086.024346,6581
2043.44406,6582
2010.797026,6583
1986.102399,6584
1968.821755,6585
1959.959242,6586
1961.626229,6587
1974.260864,6588
1997.910926,6589
2029.31283,6590
2062.691178,6591
2091.359561,6592
2117.366269,6593
2130.216252,6594
2136.92703,6595
2138.646598,6596
2138.963258,6597
2142.982994,6598
2153.856392,6599
2172.302119,6600
2194.161615,6601
2212.61302,6602
2218.345127,6603
2203.635599,6604
2163.181525,6605
2096.561353,6606
2008.812768,6607
1909.092428,6608
1808.31927,6609
1717.300124,6610
1644.175141,6611
1591.832477,6612
1558.926833,6613
1538.846119,6614
1523.180636,6615
1503.19437,6616
1473.374211,6617
1403.647318,6618
1384.871717,6619
1398.407818,6620
1453.147714,6621
1556.710873,6622
1711.360573,6623
1909.313273,6624
2133.732947,6625
2357.395454,6626
2551.894589,6627
2687.792918,6628
2744.304392,6629
2711.303106,6630
2592.111216,6631
2401.619916,6632
2163.807058,6633
1905.368412,6634
1653.222688,6635
1357.854549,6636
1170.229329,6637
1027.007031,6638
926.6211282,6639
863.7104207,6640
832.8560672,6641
829.6966777,6642
851.632923,6643
899.1553738,6644
973.8356711,6645
1076.538491,6646
1205.231791,6647
1355.154132,6648
1516.806463,6649
1677.148504,6650
1823.043532,6651
1942.731944,6652
2028.092686,6653
2076.574798,6654
2089.97112,6655
2075.613582,6656
2043.116983,6657
2003.390227,6658
1966.700639,6659
1939.436003,6660
1924.197595,6661
1919.425162,6662
1920.939625,6663
1922.208305,6664
1917.520037,6665
1906.581479,6666
1888.367486,6667
1869.110936,6668
1855.256181,6669
1853.598536,6670
1870.488069,6671
1907.627687,6672
1963.754408,6673
2032.503209,6674
2104.663483,6675
2170.016882,6676
2218.587517,6677
2244.592927,6678
2246.098855,6679
2227.358945,6680
2194.580666,6681
2155.248234,6682
2116.893424,6683
2083.347425,6684
2053.429673,6685
2023.052525,6686
1984.977035,6687
1930.345982,6688
1852.942218,6689
1750.750997,6690
1626.641321,6691
1489.628644,6692
1352.675285,6693
1229.892613,6694
1133.410281,6695
1071.152745,6696
1045.693253,6697
1051.69689,6698
1079.878708,6699
1118.651117,6700
1154.987181,6701
1180.307984,6702
1187.997783,6703
1177.621473,6704
1150.67287,6705
1112.19227,6706
1067.793895,6707
1022.682962,6708
980.3763042,6709
941.8877445,6710
907.1553226,6711
876.1642543,6712
848.9763875,6713
829.214172,6714
823.7977249,6715
841.5940484,6716
890.731302,6717
979.3691206,6718
1110.633805,6719
1282.226474,6720
1486.679223,6721
1712.037775,6722
1942.886861,6723
2164.961367,6724
2361.204206,6725
2522.789856,6726
2642.07596,6727
2717.690254,6728
2752.766315,6729
2753.846137,6730
2728.599043,6731
2685.420786,6732
2630.703627,6733
2570.337073,6734
2508.137056,6735
2447.27223,6736
2390.232413,6737
2339.878897,6738
2298.954244,6739
2270.598406,6740
2257.374434,6741
2260.979981,6742
2281.820402,6743
2318.297665,6744
2363.188746,6745
2411.421074,6746
2452.64311,6747
2478.599265,6748
2482.811305,6749
2461.498774,6750
2414.277702,6751
2344.461661,6752
2257.902751,6753
2162.489257,6754
2065.226957,6755
1972.229082,6756
1885.432469,6757
1803.073123,6758
1722.070279,6759
1635.69469,6760
1539.096584,6761
1428.121716,6762
1328.908523,6763
1189.335178,6764
1039.608183,6765
889.9896536,6766
748.5458133,6767
626.0725073,6768
530.7808075,6769
467.7253672,6770
438.9481545,6771
443.2946849,6772
477.2672624,6773
535.3338763,6774
610.7654541,6775
696.5075276,6776
785.6263718,6777
872.1728445,6778
951.511686,6779
1023.049216,6780
1084.70721,6781
1139.948699,6782
1191.07007,6783
1241.453654,6784
1295.189765,6785
1354.932741,6786
1422.385221,6787
1498.082323,6788
1579.218378,6789
1662.08523,6790
1740.021616,6791
1806.146697,6792
1853.020454,6793
1874.894519,6794
1867.531528,6795
1829.672671,6796
1763.366096,6797
1672.53718,6798
1564.428162,6799
1447.330501,6800
1330.717137,6801
1222.993572,6802
1130.836056,6803
1058.430183,6804
1006.677265,6805
974.5171715,6806
958.7376267,6807
956.2629277,6808
963.3239356,6809
975.8955658,6810
991.8882202,6811
1009.490489,6812
1028.913268,6813
1050.031737,6814
1075.993207,6815
1107.758728,6816
1147.095227,6817
1195.156226,6818
1252.379183,6819
1318.665683,6820
1393.791535,6821
1476.831464,6822
1567.454939,6823
1663.251026,6824
1763.177966,6825
1865.835679,6826
1968.574074,6827
2069.361599,6828
2167.072153,6829
2257.919366,6830
2340.656141,6831
2413.267856,6832
2475.63148,6833
2528.63283,6834
2572.536532,6835
2610.069421,6836
2642.462345,6837
2670.788053,6838
2696.708417,6839
2719.757188,6840
2739.917486,6841
2755.666674,6842
2765.898974,6843
2770.048776,6844
2767.988914,6845
2761.205863,6846
2751.544775,6847
2741.392247,6848
2728.798996,6849
2716.360606,6850
2698.563087,6851
2670.860724,6852
2629.348031,6853
2568.383159,6854
2485.793618,6855
2382.734056,6856
2263.072514,6857
2137.38952,6858
2012.739812,6859
1874.584714,6860
1730.377177,6861
1592.389715,6862
1466.927217,6863
1358.596813,6864
1271.513133,6865
1210.428917,6866
1180.088259,6867
1185.110389,6868
1227.17801,6869
1303.0171,6870
1405.934363,6871
1525.901247,6872
1649.641155,6873
1765.905696,6874
1865.83545,6875
1903.538949,6876
1958.157661,6877
1996.054231,6878
2023.844604,6879
2048.796492,6880
2077.681494,6881
2112.821504,6882
2153.485695,6883
2195.480373,6884
2234.005272,6885
2264.009147,6886
2284.178279,6887
2296.95735,6888
2307.751469,6889
2322.415261,6890
2347.26263,6891
2384.251103,6892
2431.925039,6893
2484.824221,6894
2535.108572,6895
2573.579479,6896
2593.410199,6897
2590.920191,6898
2568.566175,6899
2534.425748,6900
2500.846495,6901
2481.596234,6902
2487.522408,6903
2523.773012,6904
2586.535761,6905
2664.889163,6906
2741.222075,6907
2795.311663,6908
2809.811355,6909
2772.082967,6910
2679.178451,6911
2536.246463,6912
2357.973494,6913
2163.146513,6914
1972.950841,6915
1804.149601,6916
1668.255824,6917
1567.797867,6918
1499.602732,6919
1454.443881,6920
1422.354222,6921
1394.828194,6922
1367.445791,6923
1340.916545,6924
1320.536658,6925
1313.343227,6926
1326.838371,6927
1366.428469,6928
1430.009488,6929
1512.4501,6930
1602.775008,6931
1687.907324,6932
1754.601509,6933
1794.539664,6934
1801.967574,6935
1779.627861,6936
1732.892078,6937
1671.281566,6938
1605.709096,6939
1544.542763,6940
1494.312306,6941
1456.226273,6942
1428.398566,6943
1406.907401,6944
1385.854933,6945
1360.957945,6946
1331.673596,6947
1298.890088,6948
1267.009671,6949
1241.08183,6950
1226.793457,6951
1228.383382,6952
1246.604688,6953
1281.44636,6954
1328.057434,6955
1380.916055,6956
1433.158799,6957
1477.780318,6958
1511.381787,6959
1532.550459,6960
1543.002836,6961
1546.575429,6962
1548.963638,6963
1554.980638,6964
1574.511816,6965
1607.338245,6966
1698.6432,6967
1767.630891,6968
1847.964103,6969
1932.537854,6970
2011.554358,6971
2074.737431,6972
2113.242618,6973
2120.040698,6974
2092.013155,6975
2030.36348,6976
1941.822986,6977
1834.900548,6978
1721.488895,6979
1612.991894,6980
1520.332265,6981
1450.734784,6982
1407.725444,6983
1391.304679,6984
1397.866969,6985
1422.648996,6986
1460.412218,6987
1506.371077,6988
1558.075597,6989
1613.868193,6990
1672.65168,6991
1734.340209,6992
1797.922492,6993
1861.240676,6994
1920.856245,6995
1973.264131,6996
2021.57671,6997
2058.653729,6998
2091.48576,6999
2120.738702,7000
2149.744996,7001
2182.145228,7002
2220.440234,7003
2266.581571,7004
2319.984253,7005
2377.854474,7006
2435.485773,7007
2489.507498,7008
2535.038728,7009
2569.544671,7010
2591.54135,7011
2602.625557,7012
2602.51828,7013
2594.372469,7014
2577.685454,7015
2553.420922,7016
2521.420855,7017
2480.370754,7018
2431.018089,7019
2373.290266,7020
2309.219084,7021
2241.177191,7022
2173.32993,7023
2109.368028,7024
2053.529595,7025
2008.372333,7026
1975.778226,7027
1955.902782,7028
1947.00809,7029
1947.687124,7030
1956.190148,7031
1969.76705,7032
1988.190505,7033
2010.402814,7034
2036.051677,7035
2063.909537,7036
2092.266538,7037
2117.636498,7038
2134.17419,7039
2136.890158,7040
2118.962655,7041
2076.757582,7042
2007.972334,7043
1915.341639,7044
1805.397853,7045
1687.885421,7046
1574.777826,7047
1478.411885,7048
1408.728312,7049
1372.147628,7050
1370.038348,7051
1397.869424,7052
1447.725941,7053
1507.29122,7054
1564.499318,7055
1607.367845,7056
1628.74956,7057
1624.656532,7058
1596.404949,7059
1549.240529,7060
1491.074875,7061
1431.049374,7062
1377.27278,7063
1335.659131,7064
1308.981209,7065
1296.718045,7066
1296.157422,7067
1303.025966,7068
1311.675745,7069
1319.609483,7070
1324.187526,7071
1320.920311,7072
1311.398146,7073
1298.103931,7074
1284.242903,7075
1272.692716,7076
1266.105037,7077
1265.609195,7078
1271.654162,7079
1283.085032,7080
1298.851954,7081
1317.076196,7082
1336.591695,7083
1356.496251,7084
1375.301335,7085
1392.029334,7086
1405.899408,7087
1416.26051,7088
1422.08882,7089
1423.587256,7090
1421.518558,7091
1416.65639,7092
1410.763632,7093
1442.069173,7094
1440.69171,7095
1445.498378,7096
1457.365387,7097
1476.92609,7098
1503.976539,7099
1536.724318,7100
1571.904921,7101
1607.705288,7102
1640.42372,7103
1668.354847,7104
1690.268804,7105
1705.147382,7106
1713.828994,7107
1716.83735,7108
1715.388073,7109
1711.029171,7110
1704.547819,7111
1698.297483,7112
1693.508001,7113
1692.745538,7114
1699.20841,7115
1714.897665,7116
1742.85217,7117
1784.689353,7118
1839.998265,7119
1934.062554,7120
2011.417462,7121
2095.403658,7122
2181.756916,7123
2267.58813,7124
2351.865736,7125
2432.281357,7126
2509.667277,7127
2584.354497,7128
2656.24146,7129
2725.07078,7130
2789.754266,7131
2848.186352,7132
2897.766968,7133
2935.754826,7134
2960.896237,7135
2973.045882,7136
2974.747155,7137
2878.626037,7138
2815.94529,7139
2691.008296,7140
2508.326646,7141
2271.38311,7142
1986.663563,7143
1668.746758,7144
1363.631754,7145
1053.747298,7146
793.1506903,7147
609.2264461,7148
518.6693605,7149
523.9937472,7150
615.3310882,7151
769.485528,7152
956.1152909,7153
1144.851712,7154
1308.798405,7155
1431.730699,7156
1507.496426,7157
1542.06262,7158
1548.167465,7159
1541.659397,7160
1536.650346,7161
1541.724738,7162
1559.280261,7163
1583.945782,7164
1606.355998,7165
1615.4951,7166
1602.266128,7167
