values
1276.1569125786687
1309.851499318146
1354.1339316905714
1411.6347423061136
1484.443040139683
1573.0981812821
1672.5817119638273
1774.26302511926
1866.2832180278754
1936.9188732143596
1977.592949519264
1984.5422290176566
1961.2510039166561
1917.3664066525398
1865.9712116821386
1821.505708466138
1795.9895151085923
1795.6604947138549
1819.7184739981622
1861.8636364731003
1910.582576148554
1953.7713676008734
1980.8978263586826
1985.5298907122442
1967.8652412953413
1933.2479418851578
1890.7616574139875
1866.7308269133248
1863.5088137294829
1902.6978503264834
1986.0764480136313
2109.0319455452836
2262.109638834843
2429.5816241993525
2593.1111643541076
2664.352061093143
2771.1105385104265
2835.0427681915594
2855.1301618880143
2838.278001154432
2796.3263811691586
2742.673096498781
2690.943876555478
2651.4423711565914
2629.9206015440013
2626.992433933163
2636.9684984186565
2654.5498019790125
2671.1120686348745
2681.1423137676043
2682.070395130145
2675.276633947177
2664.2984223106628
2653.817094162373
2649.3711860250164
2651.5338582803765
2660.802736551699
2672.1758971331187
2678.783891850274
2673.61003885405
2650.047603025868
2604.8755389194916
2538.685462387338
2456.8855910308985
2366.8831532990343
2278.468636393531
2200.068325299826
2138.1646079943725
2095.21525839381
2070.732240058503
2059.281215083242
2054.6436039202963
2049.1384529889724
2036.2692735546123
2007.6233807135616
1962.0518974311283
1898.940055966365
1818.4218580787165
1726.3234813732702
1628.332734101759
1530.7202331162284
1439.6155107540644
1361.6998233816491
1302.3415857464952
1265.2213826390596
1252.432943117374
1264.1345929514955
1296.5829576588824
1344.8660218842313
1401.7661237163497
1458.83093514232
1508.0970813803024
1543.8625112484192
1562.1164545206339
1562.6859444886363
1547.5878782151547
1521.0762077841541
1488.3915376509194
1455.2670693850496
1425.1533562293669
1401.7445840933751
1386.4550509095789
1378.4910014366365
1376.6668631752732
1378.8489409335987
1382.0478551876197
1385.018651588252
1387.1189982042074
1388.4483768559212
1392.1097808416941
1400.2067740546695
1416.4416757376925
1443.5438919614849
1484.0930596723933
1538.2244878397773
1604.6876369326646
1680.2975756339176
1760.629364783676
1836.7228120463972
1906.0882119103862
1959.606460008674
1995.1421001738381
2011.4374329028667
2010.4565726824312
1997.2215672411667
1978.7694514132495
1963.0076796470103
1956.231170970934
1963.5953330045802
1986.8611462973463
2024.4627664004975
2073.2301025367024
2127.81631158933
2182.2405315003853
2231.489012319589
2272.676349894346
2304.0480388036754
2326.7236688125786
2342.787917187733
2354.765326055127
2364.9752374793816
2374.65786162998
2384.3263112516456
2394.227084614917
2332.843578889705
2339.545488477786
2347.2964594016667
2357.891671041886
2372.535074268394
2393.3122050314014
2419.8901518423886
2451.9750261086574
2486.6273222533646
2520.9210480360616
2551.2691990874973
2574.7418237711336
2589.9758210383015
2596.2102276531823
2595.608410239357
2590.404779484506
2582.66568388047
2574.0538586355137
2564.491427808776
2552.2983357091275
2534.2734655812246
2506.3678773331585
2466.06905091316
2410.9948909021027
2342.8685026069306
2264.840783628125
2182.949988696358
2104.3154478951005
2036.121021241457
1984.4008309029982
1952.737028649032
1941.4940947439911
1948.8522395039286
1969.2296278934086
1996.779933599205
2025.479589707355
2049.441351009464
2065.155355817119
2069.9813946164463
2064.072286589037
2048.015406844844
2023.003756650904
1991.876101126442
1955.9360822586755
1916.3357410827336
1873.9994532450257
1829.4792186198922
1782.1927850475618
1732.7781047348367
1681.4311316087
1629.4302780705177
1577.5367695866328
1528.8387245736162
1484.4117771565736
1446.3026426871438
1416.1923306275166
1394.3763681629757
1381.2617227381206
1376.515409703589
1379.504779708976
1389.2110744033141
1404.248338738586
1423.1500981407144
1443.972555237318
1466.5206760394478
1489.1403784671547
1511.8991754312406
1535.1570222839623
1559.454226893858
1585.543742218394
1614.1992430631092
1645.1896309858703
1677.8666112194437
1710.4031833093607
1741.0030023432369
1767.736331135246
1788.7803758587374
1803.1633932675259
1809.6604478268553
1809.7884383893393
1803.9488049023462
1794.2822471746294
1783.6882389418272
1774.2546790002998
1766.8982920148192
1764.464018396584
1766.3186525766196
1774.3475939289378
1787.8816675412363
1806.7762136378763
1830.4923316963466
1857.2345213198148
1885.4399188071623
1914.5107861664567
1943.5454620238406
1973.2982976411313
2004.3571622261115
2038.5681672167193
2076.3916326260082
2119.6259763075823
2168.2181071020264
2221.8187282556605
2287.9754646305614
2359.4538016739734
2440.3438554093605
2497.00453256895
2519.3023303816044
2505.6074759294206
2453.686991563977
2363.4832198661375
2239.2619024545324
2091.248391428102
1936.288971274762
1791.6151391466826
1674.4323238667762
1597.9197389856795
1566.9601456032783
1578.604801869942
1623.6335228392227
1687.3986485505009
1755.380073375788
1819.3049023088638
1869.149751795209
1909.058026027042
1943.341131795271
1981.3212573871565
2031.9910109122332
2101.6686111418057
2191.8387318844
2297.286945280355
2407.0763284100676
2507.4785752762878
2585.2883403256483
2631.0200459376238
2640.8727122856535
2619.8326625404156
2577.869538975522
2530.4722617231632
2492.016888390685
2476.5580026235457
2489.9660087786497
2532.7508347875732
2596.371796648031
2670.084279267874
2738.332333519159
2788.9306691877805
2813.4410360350985
2810.3088398325253
2741.8776611059848
2700.780198830342
2656.9040924834794
2624.4281920825833
2611.126069301796
2622.418314982771
2654.7513064104755
2701.3655112018373
2749.9642859654973
2787.8751133592123
2805.044015680207
2795.0366909509075
2758.2742309271684
2700.362202805242
2629.8596034835364
2556.654013652056
2490.026393924393
2435.1551903892196
2393.7042695026657
2362.466379440414
2335.562786656722
2306.3202452175874
2268.323128402779
2219.5078677046504
2161.3111499079955
2099.104909296715
2040.3762301347788
1992.1991986905298
1951.9007666100779
1927.385076228163
1906.6013897560274
1885.226093997073
1855.5054527343161
1811.1603314683389
1749.6964795044466
1673.7271065633824
1597.6376217646628
1518.086453339238
1453.4478864085386
1413.026693688009
1400.4710372021107
1414.6732984194073
1449.5623085116804
1494.4055377741593
1540.3543122665615
1578.3160061063284
1603.8557258109033
1617.5223066341173
1629.376232508259
1646.9293490519062
1683.2758211197577
1742.8032519697917
1823.064568188146
1919.3764991395167
2019.5260143382857
2109.4891046975886
2174.89456255978
2205.456157588391
2196.535339125573
2151.8609925006413
2081.6000196243804
1976.927666157078
1901.99886883094
1849.6473367436909
1830.3002543491411
1846.8598957189702
1894.7269450576339
1963.946782462765
2041.3992210238428
2115.223489379173
2176.1616641824694
2221.022103187616
2250.9029778726413
2272.155052926461
2291.87420125126
2317.786193404315
2354.262409126309
2401.3748679042037
2456.227113266479
2510.756526267276
2557.397713195876
2588.8909600830693
2601.2689864265167
2595.153859817099
2575.286452440684
2549.709644055707
2528.4341320827134
2520.9503509760116
2533.254610146589
2569.0493634448067
2625.44132134116
2695.662111029891
2771.1574750305044
2840.169074306833
2892.1195807526487
2919.8007711009686
2900.5462116026897
2844.989179336248
2737.6524899909596
2587.8261917518853
2405.199123205493
2203.078582226119
1996.641795202278
1802.3073452528588
1636.2179948264527
1510.7134441105466
1433.221836469169
1403.7498443475224
1416.5281824389053
1458.8912696773787
1515.1684767382026
1570.7981953405179
1612.9956688112582
1635.380563558108
1637.5750800695514
1624.5687182151896
1604.8140284551598
1587.758378923238
1580.999215300255
1588.957826027493
1611.4774785145423
1644.2676046733495
1679.7255065656818
1709.5706581969303
1726.4330935193445
1726.4266078559594
1710.1345683075099
1682.224543899406
1650.2592937067375
1622.8794013099669
1607.9677085927954
1609.8098759528914
1629.1377750318002
1662.9307190127313
1704.938961437787
1747.4128942701532
1783.1048989892383
1806.9317515329417
1816.7901845573697
1816.327574523105
1808.1327734775377
1801.2011463097015
1801.704257913554
1814.8320399907648
1842.4242877286615
1884.0539165511032
1935.493335230125
1989.9976006697286
2040.8075026646168
2081.802639939164
2108.7147122210217
2120.2518770911893
2119.1352257235035
2108.0288175741466
2092.616528542198
2076.643651355675
2063.372767702884
2053.445602030614
2046.8174500516182
2041.9584321675575
2037.2954989482705
2031.4831329624415
2025.1612405983717
2020.6054037626718
2021.6299347150152
2033.643022778687
2059.408712833922
2043.6872883529843
2101.1490545441698
2171.1833536123086
2247.632942779774
2322.9089966713022
2389.956243914785
2443.095964029824
2479.804501174932
2500.920435431435
2510.171276897776
2512.608724925302
2515.290934769199
2522.973856609557
2540.0117736437073
2566.5693401558747
2601.7962300632385
2641.221064506607
2679.0141149366164
2710.1428966602543
2730.6473372139008
2738.9347816917907
2736.5470943970017
2725.5019396754287
2710.0805905630814
2693.039940504447
2676.5811349578853
2662.8823956565566
2652.956230203892
2647.2131086542927
2622.573248394704
2591.1338690743605
2528.475083789611
2434.414684160257
2310.8477205295176
2161.673823977695
1995.425532010091
1823.558478193294
1660.9050040701106
1521.8834627552887
1418.6437111120322
1358.8857055481126
1343.899054909095
1368.2399288681393
1422.5982252196636
1493.601426476707
1568.578376733099
1636.485168604655
1691.4533254517976
1731.6706655080523
1758.5885596431494
1777.4851657942265
1793.6343592959506
1811.2502012289572
1832.8423222214847
1857.645397108785
1883.4065226421012
1905.7341754553925
1919.9149184789485
1922.8193801255059
1913.5111549236526
1893.5543922580914
1866.9156218851165
1839.768706676659
1818.0587944876895
1807.1668953097417
1810.0328650840065
1826.4787777320832
1853.6532541240203
1886.0360998880437
1917.4512463358635
1942.0127039846177
1957.054214561866
1965.3487299257367
1965.758059154147
1966.9235420709642
1972.4944870698203
1986.2901587383874
2010.2547933490207
2042.8639216203567
2079.745463948513
2114.5773812812226
2139.604765575998
2150.9787572765313
2146.333541362374
2129.615234592633
2106.7763249851832
2086.344961528067
2076.5915857833065
2082.454505765429
2105.0959958781914
2141.6193322908875
2184.22517084904
2223.234220488269
2248.3653318758816
2252.3832780564535
2231.421418383372
2188.27092274581
2138.9532337843457
2090.2368529657565
2064.259934908351
2070.6574462134995
2115.678153715545
2199.8064179983394
2315.4345697990834
2449.636697843927
2531.6486322550722
2618.3460390830473
2635.820902801159
2577.674987313634
2445.4823433417823
2251.79872163838
2015.6407381728154
1769.5991508538038
1546.2803768231902
1374.684970191996
1274.6342391392034
1252.299714592405
1299.8714143289608
1397.6567176243022
1519.4598688178066
1638.2818281217487
1732.749630840319
1791.11522206337
1813.19696633846
1807.585296635288
1790.1101897748526
1777.5121679369176
1794.4175692193958
1839.7839298918407
1923.4041957317938
2034.15050549919
2155.25145335087
2268.1516138124193
2355.840774101819
2405.316340995094
2411.250162028825
2375.6635038541226
2307.366098130914
2219.34882071451
2126.179243469066
2039.2554916463273
1967.3265480241384
1912.4244082264995
1872.3344038399268
1839.9573734815374
1803.7087154469202
1759.2329443532717
1698.9412683812507
1623.8832376807695
1539.7763450586385
1455.7000866351561
1381.8506777819416
1327.9857896017493
1301.4940678777396
1305.5103081968878
1338.5234202514391
1394.43556897677
1464.2240437850164
1538.8235374363962
1608.5181843680236
1667.6229306530818
1712.582215895858
1743.669689002755
1762.464521253321
1773.2817438810148
1779.0022805665287
1783.0738533362246
1786.376709444551
1788.4675655124474
1788.599398456086
1801.133214706295
1794.1105062871623
1784.8988542918155
1774.8239028281878
1766.6549593118052
1761.772952780851
1763.2799570453853
1772.7723176571826
1791.6211380967727
1820.2090243821833
1858.3092204991922
1905.0862427283764
1958.9797187611448
2022.4717852670415
2074.0340383227517
2114.533031096175
2142.286607490087
2154.5282224783723
2149.375712111856
2128.057410183396
2094.5464286003207
2056.1138961514084
2022.7292160361542
2002.8516989300401
2005.6688134699152
2034.6288049288012
2110.133566332449
2185.5172531210565
2273.414251072751
2363.195827545018
2443.746256244527
2507.44168441124
2549.4603595946364
2570.8458695210043
2575.969536713055
2573.7716586586794
2573.4478637201114
2582.9558477415326
2607.8893654429135
2648.638580611639
2703.3676321737016
2765.8741480938106
2795.6202513475523
2851.4785841056346
2891.6444408084135
2913.130745425149
2913.955706008666
2897.74014195626
2868.7119177721243
2833.389830300471
2796.2700860096916
2760.2506536721894
2727.574331145831
2695.6675538162435
2663.890791242913
2628.020064054958
2585.536605689632
2535.447024271472
2477.1955966780074
2412.939558535656
2346.1995296116165
2281.2849375938026
2222.947548127684
2175.8744695076416
2143.649006239454
2127.4975454349737
2126.7266588450116
2138.3039735262573
2157.710082650688
2178.656715621795
2195.677291843325
2204.1552871657127
2199.205634367899
2180.251750822546
2147.5440630541816
2103.721698161211
2052.9824660475324
2000.6589336301436
1950.7928027855091
1907.2378218837666
1872.4823634738177
1846.3784466355326
1827.458486738663
1813.3443156730873
1801.3047423935877
1788.893809163549
1775.062552383038
1759.9900147458573
1744.5804728060227
1730.4481876371015
1719.1264130696795
1711.6655494031763
1707.9926502584967
1706.1181166209599
1704.0678697851904
1699.055025156382
1688.9408996731127
1672.3902686192419
1650.391074506323
1624.476282921907
1597.8053081964044
1574.7566644775045
1558.9444685989
1553.4458563564608
1559.6957008547379
1577.2324149550063
1603.0736877611284
1634.1833102629603
1665.6143578284991
1693.514723675591
1716.0395772785066
1732.0645671955458
1743.1745322962984
1752.4915271029888
1764.0588958116855
1782.1121145974114
1809.7476357563687
1848.2957883781733
1896.9383426242164
1952.1258099915658
2008.6480172464746
2060.3964596546734
2100.6318807243083
2123.6763092948568
2125.777415652838
2106.811339282622
2071.682787256707
2023.5698418514703
1972.4843810232242
1924.9827297791062
1886.118864900449
1860.1504968152078
1848.10808064788
1848.8910768629992
1854.000159631251
1859.5107154985571
1860.135014662532
1853.3204092587393
1838.2519057492077
1817.5797518120253
1795.5922568460337
1778.6082093027408
1772.1168493961763
1779.3947714326146
1801.242678532912
1799.9883915715582
1836.2871232257085
1871.1317533928918
1897.3836758195098
1911.1250974966783
1910.8120654117365
1898.6348709415072
1877.9937618425135
1854.680706411284
1834.7290339123713
1822.4624291085863
1820.2300799174468
1827.2786538819382
1840.4450516350605
1854.3762271503022
1863.6534201692152
1863.543482093258
1851.7874863172085
1828.3382150753953
1796.5381245809876
1760.838929462218
1726.827445124521
1699.4644977404066
1681.8741981071837
1675.4650834106183
1679.0780703174214
1690.6970346107
1707.210160138358
1724.8157600032591
1741.1010135107356
1754.9252960308788
1766.660181396989
1778.815139593677
1795.1080435740062
1819.4001209391263
1854.6919342632164
1902.9566113180795
1964.1372794658769
2036.2231804842695
2109.17406839619
2181.1480282355824
2240.0113079280713
2279.640038071806
2296.1683480742518
2287.224432209682
2253.064910880301
2198.20095347777
2129.0083050735475
2053.5079420990833
1980.157260474452
1916.2444513831977
1866.2483019714114
1833.0173836445404
1816.335387857347
1814.5856779468684
1825.435128342432
1845.272638854717
1871.7829969972706
1902.7991133770706
1937.7327014593607
1975.6159668622126
2017.32364544181
2061.3844179262874
2107.1187805666596
2151.851931051944
2191.9421475782874
2223.691657281555
2243.1849458731986
2247.792671865023
2235.9646474937817
2209.759750153419
2172.2340277499898
2128.8869911422735
2086.713589365483
2051.845400682195
2033.1250872624678
2032.145103448403
2053.0610211778085
2094.084978799574
2150.8564214382673
2216.6006846489922
2283.8668302211263
2344.7632548659653
2393.7641768260987
2427.1373217347664
2444.1106192445222
2446.486969429174
2437.867342691502
2422.2004486460087
2404.2784350509546
2388.0719449503895
2376.4445419746107
2371.64624825809
2374.033596280781
2384.1174127982
2401.202635691868
2425.0514906881626
2455.227225693714
2491.1335277587687
2532.6831269492736
2580.0385704336277
2631.773431421644
2686.5715488246105
2743.5857547342557
2799.5158282739667
2852.807003891353
2901.0525824337064
2949.5780618702056
2993.4337933473475
3010.8513072978694
3059.4580144207735
3111.0140280824694
3164.9690223141297
3220.2486238099827
3273.6310946699446
3320.8903909883475
3356.483865800887
3375.709413594569
3375.069715648956
3353.0699962746703
3311.026868300446
3253.996846308632
3186.4206138919812
3117.8972396564977
3053.885694676406
3000.759663799895
2962.858501540966
2939.879755363476
2929.294694968582
2924.910141274121
2917.7029057034356
2899.771537731525
2862.942461780212
2802.453795198873
2718.0801462185373
2612.8498761756655
2494.084958102289
2371.3189479590674
2255.0912886463007
2156.1467621685056
2081.5888416381476
2035.5409657294235
2017.51357163462
2023.1047802330784
2045.3496678680408
2076.1950173165683
2107.3161024598726
2133.694854436527
2152.2872165100302
2162.090825499764
2164.1766551989454
2161.2233490903964
2154.6320587805235
2144.9408200757075
2132.442624180395
2113.646910007698
2087.6662115087747
2051.2783504128633
2003.8805452410609
1946.284910078608
1882.6985662546558
1817.857582155933
1758.4319519601504
1713.630849190573
1681.550201949286
1667.4360783384893
1671.3608481367771
1690.1355345422553
1719.4133647459394
1770.4022308601957
1807.1017783368686
1842.1737137072191
1875.0737671814586
1905.7368724010546
1936.9587347226404
1970.4735857078203
2007.439102246244
2048.0984603437882
2090.459171411069
2131.463647022666
2167.2715418638577
2194.172627366598
2210.6908634780943
2215.750554747533
2212.0629538166495
2203.665224329578
2196.4233024176756
2196.023122259759
2206.9641752557973
2232.1303281036962
2270.0751074767695
2317.636585236669
2367.291699240523
2412.2259809288835
2444.378587388522
2456.733094523645
2445.3581493492165
2408.966552094129
2350.7259555235028
2276.7451621822947
2196.48426929997
2121.0771075789667
2060.630184893291
2023.5393239328187
2014.703347450406
2035.170311440993
2081.7558517460375
2147.8521947098025
2224.7012419337225
2303.0393244557354
2373.769319450072
2431.804663830152
2473.6885674005393
2501.9238371660786
2521.073601585291
2539.6966500736357
2564.7021906765353
2603.229094072831
2658.147892841992
2728.0247179260077
2808.7540061879954
2892.558866956538
2970.549608096601
3034.427484716908
3053.0897634890134
3074.540521089796
3075.7062820091087
3062.651222012281
3043.2629950732044
3027.304401365896
3017.6251394152746
3019.8715130764876
3029.1797166283136
3040.1062669974167
3044.072631765988
3033.0965509055313
3000.960350319361
2945.598904351434
2871.33847741846
2785.0090114552036
2697.824940872457
2620.142868554396
2560.76828787774
2524.431087440065
2510.931189084803
2515.599102927787
2530.317843764541
2545.5080113744234
2553.050762335339
2547.3747504801345
2527.1320638296193
2495.0675015191687
2456.704898499542
2417.6909327961052
2383.1619772117815
2356.900702252919
2337.80270835671
2324.6514713260144
2313.6240673214775
2300.628056303312
2282.8409744246046
2258.639886558265
2228.7428401025873
2195.347953878264
2160.594268389246
2126.882250829293
2095.7501702843356
2066.296134584954
2037.4726288407915
2007.3186172284989
1972.6468136604967
1932.7437383970137
1888.153298517996
1841.7767124310808
1798.766339210872
1764.832761674993
1741.1037566421915
1732.8038658886949
1737.1960471368643
1751.905776160386
1773.489881012597
1797.3378274907502
1819.6195041862588
1836.3843914680065
1847.1644941673371
1853.2469117455748
1856.4907744342036
1860.562950218254
1868.1464800782658
1913.9450043358795
1930.301211396835
1948.1562144400543
1963.415634407775
1972.659876543669
1973.5543824012523
1965.805400367464
1951.346760444091
1934.980509550728
1921.9498447979586
1917.758960509057
1926.7132419076909
1951.0746973563569
1989.4693067580035
2038.2201707607205
2091.1864888312393
2140.898315228788
2179.4484825141726
2200.4272584386026
2199.8049832347942
2174.9306191783444
2126.578606882373
2057.8110293639656
1972.8807285468679
1877.250882555069
1776.833845493367
1677.202627291319
1582.9392695034394
1520.9660481470871
1483.0804668873593
1487.9040889144324
1554.760029722111
1676.404660633484
1848.7021114200952
2059.9746858240765
2291.975375835099
2520.933053175413
2722.4423094316116
2874.396804890186
2961.465457337508
2979.0284007151918
2931.4867719496347
2834.0833606168458
2707.844505325107
2576.6888141670897
2461.6622747229994
2379.745908112398
2338.5774797046934
2338.7873549158617
2373.7182583292238
2433.707440637584
2505.612560546402
2579.6810389740267
2646.2441452296125
2702.123446464415
2746.2447616534255
2779.130799030819
2805.194679313099
2826.08668904567
2843.724621157032
2856.532268191387
2862.9110859048815
2858.4708431057634
2840.113347049365
2803.7040462893883
2749.4114397662906
2679.062208452201
2596.4347453821356
2508.4723700710206
2422.1724357784565
2346.199081893847
2287.266444027202
2238.129683446802
2207.7867000563697
2182.428098139447
2158.440910899621
2131.243529894495
2096.0628632262274
2052.029582253103
2001.0088026074598
1948.1802311403392
1901.0350790657508
1865.939662597008
1847.10075318126
1845.6856589375366
1856.8886698636925
1874.4126896636608
1889.940981272074
1895.2375703087469
1885.2492560390665
1858.726616451501
1817.460583655236
1767.9236741229392
1717.4924409024152
1674.2457104849946
1643.4342702357
1628.1430214232967
1627.9471781629552
1638.7553169330051
1655.978017979652
1673.5223521427752
1686.8208139901767
1693.1126474998896
1692.1566854519808
1686.8340283110922
1680.6268691078772
1677.2002613590978
1680.040770895946
1688.2487566349228
1700.5615279019926
1712.9382860910757
1721.6905662227643
1722.7371830508228
1713.7049447065176
1694.8832716917577
1668.5487368932615
1640.114055105933
1615.6414165465499
1601.6102816554821
1602.6453669682444
1619.8586315924206
1650.4649295710049
1689.7930243527833
1729.6640026585872
1762.2752034421637
1781.4493617639173
1784.5146601631766
1772.1563414563448
1750.5152149091452
1728.0636256406224
1714.1756381041969
1718.0425670383927
1744.2285851139657
1792.8814874509267
1858.8511016175382
1966.9648024563962
2034.9767508487982
2085.8499472898106
2111.013941727184
2106.577468284174
2074.458786728942
2022.0841038536935
1960.4914444935112
1901.364871636093
1855.8504064587564
1830.7177350361085
1828.163717798917
1844.3588350681975
1872.996353721099
1904.632430475444
1931.350398418117
1946.5911003730648
1948.4981071372813
1938.0228447838253
1918.9070861533282
1896.4217083206963
1874.5386199264665
1855.8434859127574
1841.5016503138684
1829.159394267051
1817.7449890930852
1805.499256962875
1791.8599453474549
1778.4138997539433
1769.2006689696004
1768.5635926870846
1780.4847423423093
1808.6741529024569
1853.0053026805847
1910.7575743550865
1976.4572573258583
2043.2718376231023
2104.450140484122
2154.1508278577344
2191.008591230623
2215.1360775976655
2230.9654947167946
2243.4435532727366
2258.9680001492543
2281.5047286273166
2313.536507262171
2354.6621435146008
2401.7091179687404
2450.136449894333
2495.615449559391
2534.4094906646214
2565.4942374799716
2587.2579451003057
2601.8008280294534
2609.1716819673234
2608.847663139706
2600.3060366148743
2581.802511909295
2551.898716605699
2510.2342654047875
2458.440467818295
2400.6844935299096
2341.310195585201
2286.491150421744
2241.1211384040607
2207.023906292074
2182.9905985005867
2163.9660591975717
2142.755221520135
2111.7945160541985
2066.1979083746196
2003.513732417941
1928.4899359796361
1848.89137170702
1775.815034314147
1719.7596928797614
1689.5342230285478
1687.1366047161887
1707.6265141854687
1741.437109367559
1774.0437705757524
1792.5824221305745
1786.489665414476
1751.9682703377443
1692.3866024908255
1617.035211924664
1539.8390154003278
1475.9759431577318
1437.2294657807224
1428.758808878541
1451.5160539308226
1520.9334694881436
1602.0079916584004
1709.7013507904894
1832.3308330230168
1961.8789223813092
2095.1135290312477
2228.1178133672447
2359.0553550873196
2483.1616139261782
2593.8970346134315
2684.3748387802843
2746.9464361381397
2777.6379854431307
2775.8634576904965
2745.6990271829313
2695.889551651143
2637.5351944829595
2587.0815040335333
2553.1332110550143
2546.807740113149
2570.046673721963
2618.585766476893
2684.4046945044142
2753.6715503595387
2813.728495900615
2853.1415076730655
2864.499237360038
2847.010973288065
2805.461973658059
2748.3923619087136
2686.9591520786266
2566.832977428068
2522.5729522343668
2489.3267773032076
2463.9549684758836
2438.2512810895937
2403.5476293295283
2352.3878980185546
2280.864940585091
2189.8183044724265
2086.9055899904315
1982.446040688164
1890.1195829597232
1820.82734541727
1781.8737990118013
1775.2305853700718
1795.389298139995
1832.655686099438
1867.3857959784198
1891.3328941586688
1887.205323508702
1851.0415103011676
1784.2627537981868
1694.459856202483
1594.1493262803465
1498.1050291669467
1420.6093416534668
1372.114851387793
1356.1452380664366
1370.8878265522296
1407.6786885042934
1453.595647613
1496.4213957475986
1525.6152724354447
1534.356128166277
1522.5384884401428
1493.5785385327786
1455.7733778990919
1418.6170643963592
1390.0292905242939
1375.5457672420812
1376.7346533439522
1390.4262601681162
1410.9448980157786
1431.8111969000447
1446.2509700123553
1450.2685764759035
1442.3508501003976
1424.3800381132169
1400.4521891707245
1376.6391237205194
1357.6704574565983
1347.6308163952526
1348.090519608657
1357.3126491023
1373.7626695836861
1393.7687613757753
1413.2252162533787
1429.511701527977
1441.1494674823514
1448.0083596962545
1452.0926827671938
1457.501737600312
1467.941984935897
1487.458507150246
1518.2070298801436
1560.8677836316642
1613.6741931472068
1673.7671951413326
1736.7778624020068
1797.739169583582
1852.3306401307848
1897.1022603027977
1934.6992281683838
1962.8646975467743
1985.605770594701
2007.1204335240684
2028.4100579066567
2051.8759785081893
2077.7775653792946
2105.9140819148097
2134.1188648963753
2160.153932129757
2183.2226055551087
2203.7976931063913
2224.526586661142
2248.4817099962715
2278.793452854499
2317.2886556780836
2309.556217803256
2361.3540399472213
2414.6704276858036
2463.407644904034
2499.9095782428326
2518.7135107493905
2515.9850177451713
2491.5222918908007
2449.8661454699622
2397.7595068380365
2343.488752257408
2296.491384778273
2264.648056701101
2253.2440251779876
2264.6671451111356
2297.710662076379
2347.8462231689355
2409.4381466491127
2474.9384093367707
2537.3461907284895
2590.5286392825087
2630.0368197273883
2651.929425529793
2656.5745908311746
2645.3055779491096
2620.9934595666214
2588.264546518333
2551.668815188228
2515.555539418467
2484.007073753082
2459.403166367956
2442.3093575580165
2431.2063908480504
2422.3510422636373
2410.598681607274
2390.4809100216103
2358.011902856243
2311.241819563359
2249.9783704113593
2177.676982004771
2099.0125030833906
2019.2639791217177
1943.3850487666543
1875.5857906673514
1818.955391032956
1775.4119321064175
1743.1324087153537
1721.9755268304841
1708.093826661684
1697.7614883912474
1687.49743824907
1675.0073014156205
1658.381574020148
1637.1089039699818
1611.9599772191627
1583.6437756754758
1553.5800177914616
1522.530248688961
1491.4743778899683
1461.260371712869
1431.7757062319774
1402.6848452005247
1373.5183705063
1343.110759724112
1310.8472959956061
1277.03705070033
1242.984380629146
1210.7003413156508
1183.0420401828994
1162.638550952292
1151.3509989206
1149.7072915885794
1156.5764382251068
1170.9600498509576
1190.5917012652603
1214.530397951697
1241.7938209183365
1272.7212474952557
1307.3423331521647
1346.2948720737318
1389.6788491977727
1437.2150963948975
1487.5822881861864
1538.323126200834
1587.196208713022
1631.753651635844
1671.435262999763
1706.3650757143787
1740.2619390497007
1776.7080906364308
1820.7333818156299
1876.0180028135635
1944.6471036830699
2025.5301205811681
2106.4318632186933
2187.274321241661
2251.8722646705837
2294.40968512178
2309.833370865623
2297.360371689074
2259.11645909048
2203.415921110191
2140.60372650137
2082.419772152574
2038.9065578216657
2016.4548709063026
2016.94372216562
2037.9460375975245
2072.9564361596854
2079.4602636132586
2094.6294163366656
2074.3316888620366
2016.1720252537061
1922.0830308275804
1806.4156458445343
1663.648157141466
1518.4796909373542
1388.733267349192
1290.2471644920815
1234.255016850631
1217.4699158837288
1261.9160546262306
1349.6059874540683
1466.0683694546838
1595.2084798701835
1721.4377924693308
1830.7663248007534
1913.0918386243025
1962.0944291093058
1975.091309518016
1953.6474497960385
1901.8910063206645
1826.211986814158
1734.0355753736794
1633.2796075160913
1532.3436805216832
1438.125742278338
1357.5052490776002
1295.7907233194135
1256.9035771010667
1242.1245149770366
1250.7379377911243
1279.3016817764908
1322.8474822984415
1436.1202454105517
1492.3809464828064
1546.923990088745
1596.808056127832
1640.1874980148323
1677.8064449220747
1712.5374947551738
1745.6670362785744
1780.2000907598804
1815.4287788239772
1850.2882136895812
1880.5612549742536
1901.7093170697406
1909.173758187263
1899.315355294238
1871.9313386857932
1828.4404978625173
1774.720155898083
1717.4494406657977
1664.7983530734778
1623.3740372059322
1597.679707570788
1588.561837553243
1595.489619811621
1614.2756817586596
1640.4525283882153
1670.330624382874
1701.0680998286805
1731.5958642464273
1763.4553082297525
1799.0194488529617
1840.563794979275
1888.9322773994827
1941.7736918249072
1996.4751135056092
2047.9659895299983
2091.733665487456
2126.6571154288545
2152.835115556444
2172.79372773436
2192.1408432721873
2216.542485867719
2251.0750333217
2297.845043970988
2356.3160507419575
2421.610552434107
2486.6205723948524
2543.7887398596085
2587.668047007679
2616.068479475255
2631.5507339253654
2640.259409830364
2653.0657061112993
2678.9240764727037
2724.6110352153078
2792.053926135868
2875.5233321027226
2962.81916104687
3038.9084710242696
3087.353324453078
3095.9995053360517
3057.742071235405
2974.1306051842917
2855.474865072196
2717.8435319242317
2581.9409811856844
2467.7248116201918
2391.2983810714677
2361.2197032812915
2377.120182618303
2430.451533003381
2506.984783877444
2590.0487551933074
2663.9035874859346
2717.374673448302
2744.9994893050834
2747.072698328485
2728.5656389563746
2696.1750825457248
2656.7077705849497
2615.1250286372615
2572.127971709381
2526.1086685207515
2473.187530355318
2410.4843093378536
2282.2263195201276
2197.790800777886
2109.0102050908117
2023.947204591312
1951.466404761336
1900.4317731634496
1875.1582023786489
1876.2801384447132
1898.9847503893536
1934.507831510688
1971.4992744409549
1999.0240500839573
2009.0855091322303
1997.435950302668
1965.0903720140127
1916.973588037291
1860.4966629579194
1803.48477500211
1752.2539013820958
1709.846805526247
1675.5481995271848
1646.1459411046521
1617.4733730306732
1585.9237034381151
1551.626051666052
1516.8605833480678
1489.0325278520638
1475.150528016754
1483.4505480208236
1518.747886372722
1581.42440210228
1665.61299965861
1761.121624835972
1854.6025093573326
1932.8321473671917
1985.3254186836023
2007.229240580512
2000.3338515337857
1970.9361799596052
1929.092605208199
1887.0901577702953
1854.0425998446217
1835.0311549483622
1828.7172666734627
1830.1002197714463
1829.697435341488
1818.4645990837469
1790.9214490569602
1746.107998827305
1688.6566217520658
1628.228438731673
1576.457167493945
1544.8333103939349
1547.5122819365777
1584.806594970363
1660.0734616116188
1764.4303385400585
1886.2975147888224
2010.0000784972776
2122.152302882498
2210.7565097288384
2270.3277089045087
2298.9650238063505
2300.488325353498
2281.978962387073
2250.8872011899934
2215.6180795329283
2182.7128611274884
2156.073115865398
2137.247799218604
2126.475836403459
2122.2126321628916
2123.717218158791
2129.9484890365725
2141.345836789183
2157.7333188039224
2178.6792312342145
2203.417002051279
2230.8061508137853
2257.600653448577
2282.6252233103037
2303.4984140788924
2320.6996983060285
2335.9144961560405
2354.210784566376
2380.3115359337035
2419.3429442653633
2474.8084001920683
2546.339967039906
2630.4484677618366
2719.539101865676
2789.1874696051086
2836.254053071252
2833.7421676822482
2775.928333070659
2663.1478975811847
2502.4341388045755
2310.115791266875
2108.847614333013
1923.7344604506422
1778.9658046158256
1692.2683190612236
1671.4914013586865
1713.9219826049207
1807.0714701646111
1931.1720617377923
2064.5373203478403
2187.5709138927737
2287.4526583078896
2357.5057370678005
2399.2765887566497
2420.085568395538
2428.3734453175452
2432.5673952188677
2437.5242938169768
2444.1256450591823
2448.90866263687
2445.784208368315
2429.280695331521
2396.504878751546
2348.94973439563
2291.9473127554857
2235.0746158672728
2189.247548154503
2162.553712916304
2160.537523409478
2210.694585790389
2251.8098001927337
2302.682766305614
2353.4362641532666
2394.54795968712
2418.9327276174376
2425.4752510168273
2416.0280379211968
2397.6041106245666
2378.7394250864113
2367.7820889915347
2370.7707652420922
2389.9304318792256
2424.431944865602
2469.655775110567
2519.412407256965
2567.671372851788
2608.4140192900168
2638.2045264840913
2656.704427562913
2663.79583119174
2662.791517225157
2656.8452571825137
2648.7732288731268
2640.829225306968
2634.83778549942
2631.4997070125883
2631.1118835331044
2634.216105965239
2641.3971882865626
2653.7177372473934
2672.3254889111704
2698.6775522972134
2732.920030133905
2774.426357421646
2821.9196443127776
2872.3977335094137
2922.647549615965
2969.9740893180237
3010.8784014175935
3043.6251837691107
3067.6667997029076
3082.6091549208913
3090.5569939968855
3094.2173484096875
3095.8259780202366
3095.8885517546355
3095.9870661744794
3046.0443820065384
3041.313124648579
3028.6848914118905
3006.389688411088
2971.424312703814
2925.009502966101
2869.7778088239475
2810.525575653501
2753.70098888294
2706.0933703574246
2672.112369366683
2655.8764025006703
2656.4424273877994
2672.689563735283
2700.373858239749
2733.719440208714
2767.9923477013745
2784.0595501365165
2788.490130535688
2764.9570724873965
2714.9251201128973
2641.9266977095417
2549.293082469233
2442.1381391660857
2328.646633789452
2216.7537299501623
2114.1391273334443
2027.9854156713566
1962.5275173486066
1918.6291746800707
1894.4076123604332
1886.82696335467
1890.5493681254102
1901.2457949456273
1914.7126022592804
1928.563404387672
1941.8709340794326
1954.6392881826625
1968.1797747068688
1983.266690428627
1999.7770255560367
2017.9437933609634
2036.1950690945225
2053.221988226565
2067.381344435331
2077.3305447285966
2082.983657281783
2083.6586521800223
2080.9004152915527
2076.061865957017
2070.61356162995
2066.2749818999787
2064.180106338578
2064.750202940695
2068.3650065432857
2078.7702096402613
2092.6435237736414
2114.503172674774
2143.764500952633
2180.133568881794
2222.498044948554
2269.1541341868997
2316.1924994707397
2358.764770237052
2391.8439093133343
2411.1510201619735
2414.4986159090026
2401.514234598995
2375.4771149261405
2341.1930231635642
2305.6743401225863
2276.446326399987
2260.3421770381515
2263.0110057788197
2288.6252186878432
2334.9117286578767
2400.3086598151804
2478.173623599078
2560.2570203895693
2639.268994859149
2708.5568504649186
2762.5877366610653
2800.3678180807533
2821.6565118996577
2830.4553297769085
2831.7960082676154
2833.116679360889
2839.5612731436017
2856.9642291568825
2887.223013358758
2929.135786752153
2979.2625313859226
3032.1451305798055
3080.70591498535
3118.5668109849225
3141.54020150588
3146.373861347821
3134.3575484641146
3109.5909812859773
3076.834935216996
3050.749921372486
2982.9999492625348
2883.403617580226
2756.135043413432
2602.3176672299646
2425.1677781208436
2231.741491845549
2033.8995596152524
1848.0219344090624
1690.470437748122
1575.8861361129584
1512.057423808166
1499.3433071293236
1529.451458262055
1587.761919074484
1657.4457991243642
1723.0856584403227
1786.9969958766128
1837.9793434902592
1893.4247839425886
1961.1650728843956
2050.4170650314254
2166.7870980031084
2310.6309295805713
2471.205313065367
2631.6602156171907
2771.65358615757
2870.6199783866655
2914.482943730188
2899.407558282524
2832.099237189739
2729.2856981742925
2612.9568624170483
2506.4710424817627
2428.1742694251325
2387.69694965469
2385.480982496436
2412.594946682613
2454.328373117072
2495.1602164295614
2521.9904867351243
2528.3593221137317
2515.494655830023
2490.2802466440426
2464.477484646141
2449.4635730066066
2452.8122904182915
2476.8769331066705
2516.6766508312217
2561.8455143208157
2598.5512521554347
2614.5965493165177
2601.841432032479
2559.1246580283596
2492.687909667917
2416.434702354723
2345.583385631334
2295.8072087943206
2278.505682895922
2296.2725785200387
2344.503903466642
2410.145677246859
2475.4051497075056
2521.670395224626
2533.076746596169
2499.8429953727086
2420.740672944297
2284.2965033313335
2141.146185727692
1990.3750594671783
1849.5108438788889
1732.4409485941762
1646.5444360876706
1591.8420790464716
1563.2427065807142
1550.574671655559
1543.8242292891155
1534.4121365839326
1517.5792243624276
1494.1232799239408
1469.033151287173
1450.1310368822917
1445.7268071808132
1462.0174560102919
1500.841511516263
1560.1184897264277
1632.7123438782319
1709.6118461307785
1781.5919427663096
1841.0885499752662
1883.570071638117
1909.6185613818102
1922.8600683197205
1928.5924761721142
1933.502461671313
1941.273947013194
1953.449834567595
1968.4289761516097
1981.7811842837434
1988.3742105022116
1983.9991794704454
1965.5086267562901
1933.7053223597034
1890.9773111160616
1842.804385942914
1795.7666342293726
1755.2569768541125
1726.3166226151734
1711.40578920439
1710.56399099185
1722.6060643897638
1745.51211804161
1776.7159366364183
1814.050369076203
1855.136845540457
1897.8962234874368
1938.8488504979832
1973.9505116881658
1997.9350490174488
2006.3035554919213
1994.3241587437562
1963.0907119018595
1912.1915716141991
1849.6221175013059
1782.8985043274063
1722.526496894388
1678.807841201651
1660.2640204026573
1672.330824456743
1714.7560301593003
1782.578492557111
1866.3350657586993
1954.1876697758707
2035.3699076599817
2100.980218599395
2146.5541498829375
2171.7683320205556
2179.666282041231
2176.4210330481988
2170.1376863787796
2167.321242564196
2174.60042407914
2140.6765301311907
2171.4778491309203
2211.148573531893
2255.242093400773
2299.2172956776067
2339.584789614135
2374.782962077788
2405.450094030663
2433.575887592218
2462.4347048158547
2494.5835098821567
2531.5613889997358
2573.517655427446
2619.0646824853025
2665.0654447308616
2707.717336282928
2743.581336718118
2769.04810620196
2783.533516578896
2788.9076811215623
2786.042884465212
2779.7162417546956
2771.6672599768362
2763.3504124672218
2738.6271920771214
2705.0575341835674
2644.0053555810437
2554.020209924041
2435.74389799546
2292.478711009977
2133.716501127639
1973.423337621826
1827.9235449902594
1714.0279506932459
1644.6000352595588
1624.8047174521434
1652.9086201328237
1717.8553477440435
1803.5752715783376
1892.2260555471817
1967.0110136489154
2016.8305366542643
2036.9973399845567
2029.747589984122
2003.5510890808237
1969.0698672595868
1937.0773988105316
1915.1638421982493
1905.8054845837096
1906.9989142212908
1911.2671354021402
1911.3591757408428
1898.8365435806395
1869.137071621315
1821.0554729156415
1758.3099043591524
1689.009875782143
1623.1155597320976
1570.3249630635933
1539.349143000205
1534.015951851234
1554.5884172276926
1596.4660225763173
1652.9010285080521
1715.1109582082258
1775.3165712904192
1826.7300926423109
1866.33397488623
1893.4392809392705
1909.798675450756
1917.5677347096516
1920.0167184441007
1919.2767739374788
1916.9109128374278
1913.1115592824153
1908.468958897097
1902.3175915835088
1894.7736884827625
1887.254491458122
1880.9309331566203
1879.042607871429
1883.1129633736566
1898.135406540116
1921.4827808979444
1955.4809022365625
1997.067749438364
2042.1756269601974
2086.526563157319
2125.968777898313
2156.273303810828
2175.91369646763
2183.309083316876
2179.5892157499734
2167.664368226111
2151.0483553388804
2133.84041206371
2120.556777553982
2115.168562477777
2120.404197607133
2136.62388384686
2164.60655307667
2202.2293361875263
2219.383242209931
2268.4730861046096
2318.770981373868
2367.7575223094855
2414.850352949544
2460.527791510253
2505.7377321002127
2551.557875575574
2598.665108880602
2646.4665235365037
2692.8571156700127
2736.9852511448207
2774.996370293593
2803.7555144564963
2820.1246393803476
2822.1334096398105
2809.171576942142
2782.64301615855
2745.5632517319696
2701.571618002048
2653.7964303910726
2603.9297262794307
2552.5095874060025
2499.446816425202
2452.7966968750447
2394.701312301803
2336.643404548605
2281.7614041968836
2233.9017600886013
2197.0578782008556
2174.7195266518524
2168.6807215715344
2179.808915206698
2205.605594098601
2241.3693876507714
2280.9494142632357
2317.077674237695
2344.2330365278553
2357.6981772148356
2356.4043684999024
2341.9819618610672
2317.3482517002462
2286.9954240053376
2255.507169473149
2225.197029780031
2198.4275852977257
2174.349116318358
2152.0727696319354
2129.4577274425487
2104.399858019685
2075.7682053213775
2042.2143355415083
2005.6964238372689
1967.9096458459283
1931.7383199533247
1899.771904816225
1873.9487196667142
1856.2971825446828
1846.6129223414418
1844.7867234400528
1849.8191503557214
1860.0611831092658
1873.2357009302375
1887.6705513067036
1902.2493504755805
1915.2096966151382
1926.3324080054895
1935.1407991426668
1942.1265677625424
1948.139304349092
1953.8217292069396
1961.557420093557
1972.9356101209048
1989.1387696224822
2011.0485266014966
2037.8197773987386
2067.003407455913
2095.460962603694
2119.6765249431883
2137.0488314982085
2146.446929988289
2148.521673551675
2145.7343898866447
2142.989788687783
2144.367269768223
2154.205265689739
2173.9211747477607
2202.3524380294675
2234.701248660197
2263.9975190355026
2283.1104059398253
2284.0990897915412
2262.763118209973
2217.50799458116
2150.6348475080463
2068.6152033739704
1979.9472462582885
1894.5426608126695
1821.6028215652016
1766.7701934242853
1733.8729160983007
1721.6708956248617
1726.794586397995
1743.8234869547236
1766.200380562273
1788.2938036707785
1805.0305245327952
1813.9151844426024
1814.277460109865
1806.8144080948093
1794.623196933074
1780.1975607789927
1792.789665718005
1780.7704916547525
1775.1349941300118
1777.7053483137886
1789.3949937884472
1810.4367967111166
1839.3480151004403
1874.8562187284988
1916.241820130393
1961.5972390372976
2010.1579937781062
2061.03447506564
2112.308314832403
2162.0541261005287
2207.374003599617
2246.7327415995355
2278.481986258783
2301.807410030905
2317.616803508555
2327.983413416837
2335.2695249201633
2343.940183756165
2357.30457802165
2378.8973391555674
2410.6210678100847
2452.1109829463812
2500.21729531889
2551.5077160445453
2599.9821412124775
2640.558937180635
2670.8659470293796
2689.03553196155
2697.171272055992
2700.0710147895265
2703.4376174663803
2713.2236166286757
2732.8956441446717
2765.0396157001965
2805.6570923935683
2850.337825557386
2891.974442415001
2921.9010246195785
2933.578208734657
2922.8674468847753
2888.6733902475025
2834.5884203743612
2766.540342766218
2692.881515909165
2616.9683892798353
2548.0514634305814
2484.754586536099
2428.25114543468
2376.771822601385
2327.4353163080864
2277.383607614104
2226.764934106547
2176.696715531627
2131.352824409941
2095.2669653719763
2071.7717613839936
2063.233843957198
2068.0199790576635
2082.1325930424573
2100.1619991263883
2115.0352126218463
2121.6385783602755
2116.3510954936983
2098.53324422192
2069.8622919486006
2034.49594116549
1997.7227385610422
1963.278523290584
1934.799193376831
1912.4510794793423
1895.4500488719086
1880.5132369673915
1863.641855155704
1843.2377840468737
1818.3330134667065
1789.6955434832428
1762.1013493641901
1740.120128354038
1728.6236663809404
1731.3317792128905
1749.31159033302
1782.2840874821504
1825.2920660366462
1872.1047336469185
1916.3580283611464
1951.6849020926747
1973.383300615221
1980.4586981343673
1975.1496484480372
1960.870008252615
1943.3922711332873
1928.2819117741697
1919.9178686767411
1920.7922212626495
1931.0986614261478
1948.2437996653475
1968.672788970999
1988.2699651226953
2003.4732760428794
2011.3053061517198
2011.490330980241
2010.0141595488121
2006.6936086063458
2002.6942093743141
1998.070778745297
1990.9687713306885
1979.5580094603674
1960.9946331284357
1932.7077866112518
1894.265242733957
1847.1670731608474
1795.674474021741
1746.3806435989572
1705.6906531268048
1678.56313735285
1668.5492705752529
1674.4356315905163
1698.830116386469
1731.7648764721102
1772.5656375131673
1814.3981422873717
1852.4385105944891
1884.0560814750106
1908.7606189151525
1927.1942526501164
1956.4950788459473
1965.772096342761
1969.8152300972947
1967.4159483655587
1957.6088394376193
1940.7071433189692
1918.608630609074
1894.7554606670276
1874.0664482834381
1862.5052536251364
1866.0110708686816
1888.193272651522
1930.3018530624454
1990.585240761311
2063.7984705837966
2142.334787363378
2217.9803413767663
2283.1014745866682
2332.749995027399
2364.095321869607
2378.648925022221
2379.897429455524
2373.133268122143
2363.3799828728247
2355.0961650195354
2349.976359697008
2347.7292589277354
2346.2109938443054
2342.5146241665598
2332.98979111585
2317.067511636613
2294.7028911888597
2269.5739037494377
2246.1786248942726
2229.96287008055
2225.345187436774
2234.1946650823443
2256.2819894517884
2288.34692216827
2325.6690971409516
2363.2249274466794
2397.1014737785013
2424.873807117599
2447.2510252167594
2466.4752883347965
2487.497631878888
2513.363935676779
2548.619990726137
2593.2440805954775
2644.1538991545194
2697.237135169383
2745.4488412553355
2783.1071623713788
2806.6100754268414
2815.7093549348774
2813.4995460945856
2805.699084480316
2800.0836015764885
2805.359329428862
2828.385218104572
2871.273836230937
2934.8808310466293
3013.5371498252503
3099.7029343321933
3184.2968204544195
3248.855757134402
3309.610357614647
3352.574552931308
3378.3335178144903
3390.6641197543727
3395.673736180454
3398.3326091602203
3404.593921677402
3414.1925755501907
3428.3935468512263
3442.1613809728424
3451.410269283911
3450.630552181351
3438.1791409488987
3409.791189698808
3372.3420491605884
3327.5385764203666
3283.9886773690073
3248.6357258520666
3226.53723946234
3220.19065687115
3228.789001312728
3245.188373731039
3263.2347629167757
3205.312428275576
3156.4619115122214
3037.762906508402
2850.062813873329
2598.654435652069
2335.1648724701035
2004.326987399905
1676.970113515696
1386.978010668794
1164.3105470814498
1029.8164300589892
991.1867394890019
1041.942653847871
1161.6328509537448
1322.9525579658052
1495.0885173936808
1651.5349141023682
1774.257605086555
1856.5502408423988
1902.5682107978057
1924.3371418326053
1936.141725188082
1951.5412171152586
1977.9452090188772
2014.9967647390308
2056.0365459367204
2090.89527603136
2108.606106817868
2101.8025169172906
2069.794522481488
2018.4346171291609
1958.3300126219406
1904.1211565737935
1869.203191826185
1864.1186260859859
1891.789121968249
1956.0942138310947
2031.0182522805003
2111.1614441233914
2183.6766109537157
2239.508356092389
2276.3189922574866
2312.3174058843
2325.965975270693
2346.0846274445394
2383.496841744452
2446.3818154683163
2536.9972966771256
2618.010454837303
2744.4252131684652
2868.62302705648
2976.74853415483
3057.8210792211316
3106.7582075052405
3124.5683711467113
3115.1707303909843
3091.0779072588
3062.067746987983
3038.0462741551696
3027.1959079242424
3030.4544198400095
3045.2482906947157
3065.5142706280717
3085.3433941046287
3100.102066430907
3074.1770493846257
3030.3382980028796
2935.931506359778
2799.524488709158
2628.4258743067903
2432.962221072771
2225.976090805458
2024.0181210955348
1844.0793340732353
1700.9102383722834
1606.0573069348288
1563.9781534750302
1571.735861044491
1619.0398521752738
1691.8691558827506
1774.6126630662372
1852.991045731031
1918.3618266513533
1966.907110468314
2000.044425887197
2022.6827396365215
2040.7001927061558
2059.7862885720997
2082.4680213650345
2108.444102226528
2133.958130955393
2154.2090433809662
2163.939462539358
2160.1895682926606
2143.194915372252
2116.8204943875803
2086.8016526420943
2066.905046195225
2061.8095723495285
2081.4445881682377
2127.8125375654845
2197.3212859182186
2282.9560762566043
2373.5694197536113
2456.193344190924
2519.5233242077666
2553.279095162797
2552.481703292288
2516.9887591169763
2452.518250912378
2368.1568383777712
2275.5296581902444
2186.835402925934
2111.9206408962727
2057.7892897005054
2026.890417380662
2018.9659877638167
2029.264219565617
2051.8230825076
2078.9803643068894
2103.635424314385
2119.866339630565
2123.942587853344
2114.5574195727463
2093.0857206163237
2061.721338475338
2025.0105491922554
1987.742801022409
1954.4677111607957
1930.722686743311
1919.6881200096527
1923.0018143889863
1941.3209148370363
1972.215189484783
2013.401923185368
2060.6938785333946
2078.902341720446
2107.0841820441588
2106.7678066813696
2075.1448230345554
2012.1242947632022
1919.0629506967095
1821.4989895844358
1692.7141776719939
1565.8079895642545
1455.138998857319
1373.6375312950136
1330.2290220685709
1328.333592519746
1365.1702284082255
1432.956303221149
1520.5989384372206
1616.236198417337
1714.0148480169682
1797.3656252759326
1869.0960838574692
1928.6810294869554
1979.5577862312855
2025.8708821350383
2070.618105740163
2115.6776732846633
2159.3967736963627
2198.4014094977715
2228.1031301057014
2243.1782004708357
2240.807033522423
2221.0072445425017
2186.1834047940038
2142.3248836484736
2096.143999001092
2055.103684078621
2024.9213774140371
2009.087285302222
2007.8293710184084
2018.4611402461953
2035.960460328122
2054.8893044312977
2070.3634872811267
2080.0243544703317
2084.2991729861924
2085.9974869340454
2089.7337128479735
2100.6139849006563
2122.0325234921916
2155.2890726848213
2199.49111496381
2249.912324246811
2302.1546889697092
2349.2905419799577
2387.457020327444
2414.1211856736895
2430.5357378067756
2439.92476164745
2449.3160853905224
2453.426920631729
2462.7039607064507
2467.633190310069
2465.8359473435307
2453.0096858459765
2424.4226628224137
2377.4053606315088
2307.664389726791
2209.3157482828933
2085.898851761743
1949.6788375888252
1813.2066055434216
1687.3157711269687
1580.4524998683505
1498.9208894681094
1446.0650049886785
1422.6643561323815
1427.1356217198413
1455.9635015085091
1503.584975681365
1564.6175501421876
1634.1181294531987
1706.9491964321187
1779.0536781661135
1812.2266106029322
1873.3232788837893
1924.9323730948515
1964.2739357232242
1988.9222769839612
1997.1272026145286
1988.3991078726453
1963.6292252706878
1926.0757827311627
1880.0131399731035
1831.1339306028722
1784.9199335993671
1746.4415075880331
1718.9776844393232
1704.613104316954
1703.0786882363564
1712.2503064136065
1730.2917063507234
1753.7373861004087
1780.2009252578432
1808.132311733996
1835.6715198340721
1863.513492763418
1910.1251069387495
1964.1501910651234
2046.3987572014146
2153.176963926785
2279.8455909871523
2419.030831668557
2557.217602050188
2679.2040566824235
2767.9247017027446
2808.5671084394844
2791.3366131822586
2714.2283937775615
2583.391540912262
2413.2167021927808
2223.452066004274
2035.5476323020448
1869.654994107555
1739.691322163349
1651.9729654382172
1600.5554083983934
1580.9911995485554
1577.6804193445128
1580.107858386857
1580.4612555512663
1574.603092108732
1563.9761625434967
1552.5673976539117
1547.2073575854004
1552.79787247631
1570.7401988734437
1598.7959529642005
1628.6024815957683
1649.1398235829342
1649.8648205171226
1622.6726915505126
1564.7881105657211
1480.8405114435366
1381.8653561171268
1282.584104443884
1199.0275818793307
1144.1908929960368
1126.195383172842
1145.6286858070853
1195.4950546241903
1264.0212369065603
1336.7039345531048
1398.7159036563564
1441.5776440679044
1462.103204089261
1463.2926052076828
1453.6408285761768
1444.3341803797412
1445.8862117042304
1465.4929613026559
1506.3625630535362
1565.5268914044805
1635.5582478990627
1706.4860308564375
1767.9097582542556
1811.3958315444402
1833.5062548074307
1814.3101114396754
1800.143374140873
1779.3968060637974
1761.0828498826077
1752.4864075135706
1758.0642727027816
1777.9263733874327
1809.3390093869548
1846.6381104645423
1883.5954881541784
1913.8642018144596
1932.8276975485298
1938.3999126903325
1930.722708266196
1913.6930482519117
1892.360945920797
1872.4304951466129
1860.233072135962
1859.360466238072
1871.185165491085
1895.865004252217
1929.3036308902656
1967.2286156134787
2003.9163582077872
2033.8182220892027
2052.94229410294
2058.743799439054
2051.976259284664
2035.0954842168994
2012.9491951718805
1991.2486081926108
1975.1591353336933
1969.4425589380362
1976.035244497987
1995.0548652392602
2023.857360235611
2058.4288027514444
2094.0916555284
2126.2722758559603
2140.309624228796
2140.701742122587
2115.1859738580292
2064.649373976968
1991.0561880097357
1899.1441352571178
1795.0202743332175
1687.3135725179432
1585.9822311503676
1500.6034834411835
1438.7918343072827
1405.06883989211
1399.6043802709119
1418.0262189978907
1451.9259264630034
1490.4298874127999
1522.2455800995372
1538.2207221245149
1532.6386223823083
1505.3135390320651
1459.6430886151484
1403.1927079922161
1345.059162107791
1293.5670952969845
1255.1938002803106
1232.4444766011532
1224.7143957959097
1227.8290277942372
1235.7302923849036
1243.1968789478146
1246.412439040003
1244.6008747735768
1240.6259305304848
1239.401985713324
1246.6384861172867
1267.3696235973352
1302.8979141367859
1351.5809106257939
1407.9992699900276
1470.7715746437884
1528.0662117566108
1579.0163790667284
1618.2852258265655
1644.6229356866106
1659.3412839806278
1665.888588862317
1668.0526762334957
1668.8428123379438
1668.65543898212
1666.9562130303855
1660.5752478128497
1646.7470151023342
1623.9022921763374
1590.7176482808352
1622.0755303420233
1619.472705796176
1671.6734463517128
1784.9175875941294
1967.6607767644875
2218.0240160644908
2449.8040906995466
2788.585764341297
3126.4604401437027
3427.9421427301945
3657.7409614949374
3791.434326261964
3817.3140182938077
3740.3603406428983
3579.527775778327
3363.908123093604
3127.2261698553557
2898.6262379698196
2701.103453753539
2545.861620558048
2433.7847009801117
2358.1790021125043
2306.176686256508
2258.695843534836
2210.8681304783663
2153.1428694011847
2087.8558896984937
2023.990047236055
1970.85648150945
1936.7148520907715
1926.7006545571166
1939.5898205666822
1969.8673163293988
2006.9313022719764
2037.6359570229667
2050.214108029184
2034.8875259566103
1989.1689906590072
1915.1515241890409
1822.2140220719155
1722.9757713154752
1634.2391200282598
1565.371940952563
1527.0926161925697
1520.4380941430072
1541.740855422578
1583.2698811584219
1633.767148014774
1682.5534355739715
1720.5411914238296
1741.769491440868
1745.5750007103807
1735.3651493570587
1718.8452104830344
1704.4233043852082
1700.2554708130638
1712.5551793549478
1743.7099434360025
1792.9628166937578
1855.250961550569
1924.3951558818123
1992.165953356446
2050.944674571191
2094.94272051845
2119.8542121646606
2124.8798589017756
2111.1306079241012
2080.835544571385
2039.3806625557215
1991.700350508001
1943.191120947557
1898.3577691697976
1860.8946494963666
1833.368204351387
1817.1751205168548
1812.8373774667175
1820.500055868976
1838.6620063743758
1865.8697192839468
1899.2941705422368
1936.67667288142
1975.7845723719101
2015.84638062517
2055.1383213118725
2093.233921265218
2129.179157943898
2160.810120865742
2185.780956799293
2201.025518390815
2203.514843640342
2190.157287882829
2159.926582210217
2113.5082609498063
2053.7745230049386
1985.725126285863
1915.805513124323
1850.745226407914
1797.0859554872554
1758.865599616883
1738.259500089467
1735.030241523413
1746.4299042049524
1769.1120988765267
1799.3792255727178
1834.066413265724
1871.2627170288192
1910.1534431721595
1950.9400022156349
2009.7808103785678
2077.3040627565624
2106.251868841488
2221.8520841629706
2356.7147653833927
2506.082741563724
2660.0012353228476
2806.3869863652017
2932.4854103113757
3025.3506982028953
3075.8091802326717
3079.871865985448
3038.615231457662
2959.0028201224445
2852.1624391558253
2731.9967749362618
2613.0975506175846
2507.5440645136837
2426.7044217756074
2376.2092434395427
2357.3662810381475
2367.5685747547914
2399.130317041594
2442.888785956118
2488.338189633542
2525.262159191798
2544.713189851594
2539.5149606501122
2505.9214907851497
2441.935891901177
2350.390405586896
2237.1990514811923
2111.045894932037
1982.7521644973656
1863.1080114656693
1761.8574904291927
1687.3217534218345
1643.326246504224
1630.9784800957473
1648.2046873652407
1690.1258124102799
1749.3287777565163
1818.254778412863
1889.5035900367213
1955.3404822136877
2011.1428785076278
2052.395074195797
2077.851332370476
2086.4995954579217
2080.1849636413212
2061.2594622799384
2032.7112277502854
1997.9158758741796
1960.6100706360828
1924.5545874885024
1892.589641190356
1867.5887832529072
1849.9527576604517
1839.7585509265018
1834.1978304262238
1829.740010969981
1823.2774013488956
1811.0437625823547
1791.4190507557428
1764.0934136258288
1731.3200722480442
1695.6840078694931
1661.7382160381794
1632.1867472604536
1609.1774852691503
1591.5867856288537
1576.562508687404
1558.6027481475994
1532.7506034189257
1494.49323325551
1443.0774436539189
1380.3050238299702
1312.2909146085171
1248.5679197764484
1197.69560621854
1167.9847780573543
1165.065187775875
1188.7815229277394
1234.3382249373394
1293.5645933685705
1356.2588492347372
1412.0323307559363
1453.3307304809332
1478.2248843968744
1488.231357222323
1490.4242087601933
1493.624888611832
1507.5992743565475
1539.223129716767
1591.186572701527
1662.6636497964853
1748.5690286548374
1841.3104713607158
1933.72115858589
1987.1459004823016
2054.333326725956
2099.0227312592733
2119.5860656118107
2116.8645640097475
2092.8190301755544
2049.584696058548
1989.0400775482306
1914.5769770162563
1829.1272111678445
1736.2246632385975
1641.0561107743756
1549.0103368592431
1465.4084839243897
1395.4591222069057
1342.3565970981226
1307.4809519680794
1290.3332916919771
1287.8175176206382
1296.276798726832
1310.7609476773923
1326.8562667184065
1341.3072636016295
1352.925324682979
1361.2877090690386
1367.9046458258404
1374.6516900671545
1382.790216503808
1392.4984637064385
1408.6541676881934
1419.5443942654376
1429.2784556516065
1437.2619266879947
1442.74049709288
1447.2696998806973
1451.7845837176153
1460.6491539859076
1475.6623440816766
1500.6919860009211
1536.9729004405287
1582.88253212381
1636.4422952387572
1692.5453192563314
1744.8195705332905
1788.1661207974607
1818.473472043003
1834.5580927150938
1838.3529699191313
1835.153797074816
1833.236028628935
1839.2324610046455
1861.2627350012522
1902.2824776151435
1961.9897931546332
2035.440301765662
2113.735039608826
2186.1505838006174
2241.992284605766
2273.0848363601053
2277.4705891223557
2254.2685559498273
2211.8246194234857
2161.79474406474
2115.500981819854
2084.337025511986
2074.9874947450603
2088.6892228098814
2121.772924409477
2165.6872471719967
2209.8042857198866
2255.251493169045
2277.2751075472775
2286.8277803107912
2288.612171331366
2291.8782723659633
2305.5295774227625
2315.229377121106
2371.532533405156
2449.9042305605108
2543.7977083659534
2641.684819837954
2730.7449951362087
2798.8054583791586
2837.8575543046813
2845.443957902167
2825.121197855541
2786.2358390702575
2738.8394712507366
2694.1876537042613
2659.447054620843
2637.6970390901943
2627.862947176826
2625.480462600173
2609.9802765600925
2584.789987906983
2531.659120847571
2452.089080483498
2351.615402866052
2239.4554146817954
2128.60006714367
2034.1891107689344
1968.5149086750278
1940.9670079903783
1952.563820187179
1998.4889206792361
2066.379569590434
2140.826506638621
2206.2500360629515
2250.2651308790805
2266.0942038025
2252.7338830716876
2215.991382671214
2163.8340379772067
2106.5784003539998
2083.3136344160594
2036.4802097280806
1998.727058030805
1967.7318931619748
1938.3916394936157
1906.3501201443873
1869.15898194792
1827.9346503481313
1787.387876382907
1755.7580260822897
1741.8589036291587
1752.7114802370538
1794.0165545766588
1863.938980795351
1958.824944529356
2069.0454933497535
2183.6094646399406
2292.2702763761567
2353.57245103331
2426.505819360302
2478.302380265649
2511.4084233351787
2533.3121555445596
2550.257190657604
2570.794954042862
2599.5912486485677
2639.2940584384737
2689.6146465376255
2746.9431291616816
2806.372421151434
2862.470836215538
2910.4989623365263
2947.6421623847637
2971.455908786663
2986.0699957646366
2981.748999593274
2969.838462402504
2941.7630398229617
2898.795093430523
2841.1997514581253
2766.6743786979637
2675.5734352982345
2570.0898831268814
2454.9970420866857
2337.2096452897445
2225.964139232157
2129.323790390182
2053.228094861147
2001.316936815634
1971.7629879654005
1959.6586869583905
1957.633934927559
1956.857059848482
1951.062363394681
1935.8034620280864
1910.337364313065
1876.8871541729934
1840.9249230139862
1806.8643573620102
1780.6534185878645
1765.4480896571852
1761.3351238313799
1766.234913400987
1775.9437239698718
1785.700861899722
1791.0554775478122
1791.307839916279
1786.8000518106828
1779.7979294592546
1774.012016025561
1772.3564318760696
1774.8674206279077
1781.3962714906972
1787.4289992287431
1788.2368975556644
1779.296831921583
1757.285570218044
1721.2945962094811
1674.6045609221014
1622.8538847211537
1573.7447124595624
1535.3268803520414
1514.2759467585374
1514.892053324456
1536.924369118813
1576.7920355444865
1628.002399744141
1682.3578228505037
1732.108085393148
1771.265046099401
1795.7455445627593
1805.4801626273347
1803.1441656973825
1792.8106414933084
1779.9395570933766
1768.9677886231634
1763.083034441783
1763.3344697821954
1768.404726020873
1776.5185998133616
1784.2589899003524
1788.913769448031
1788.2832512434936
1781.1380292617869
1767.9194865305287
1750.061879990316
1729.5527940075292
1708.108977961163
1687.4767814376708
1668.9507754045717
1657.9190114251498
1642.6896943800864
1631.5096487069482
1625.025367699368
1624.2826935066455
1630.486336862942
1643.8127610987297
1664.28694778747
1690.610349185138
1721.1789579208855
1752.687631647235
1781.7135658127602
1805.559636795142
1821.516707331888
1828.6461790212327
1829.296328053652
1825.2427388228818
1820.897679647606
1820.7742744266905
1827.8762571299794
1845.5283885434835
1873.3460259361568
1910.7719444757531
1954.6078116333006
2000.634459642651
2044.629966046063
2083.172843641564
2114.5633212370494
2138.303595916728
2155.840801594142
2169.486607343
2181.311404972215
2192.937482448066
2204.788453172891
2216.144233059568
2225.536626404617
2230.6830660247547
2229.37860755186
2220.5617590808415
2205.78453549032
2186.8395061052424
2168.326771088037
2155.1127400349524
2151.013830064536
2159.4966325106457
2182.258731079969
2218.5191920957495
2266.8727657959357
2323.352363318652
2384.215056541514
2445.0043483675463
2502.07749874453
2553.9216665156673
2598.414303315253
2635.5792665268837
2665.905236458972
2688.380513108961
2663.968837441738
2616.0908413726374
2502.1022041852075
2325.3406461195063
2091.171644268868
1812.0020342251996
1508.3031312989651
1211.678032878885
956.3768810585582
775.9331074382442
694.1645786127362
720.2707950055635
845.1758484346763
1042.8814694543175
1275.8766458755433
1501.682775730352
1682.6748073682156
1793.4340006726914
1824.6316476446093
1784.5235706397143
1695.0355198302054
1585.957500649542
1486.8230088220166
1418.58372916502
1391.5291012262655
1407.7232540750397
1460.6469556523284
1496.5293513703266
1505.8410581179983
1475.847228945513
1403.3046277909962
1295.9992718332867
1172.1106862377824
1055.6270602062168
970.6400525189047
935.1183788232927
956.6216702450588
1030.0865375342623
1139.693548542607
1262.377128542994
1374.0635483856363
1455.067108027334
1494.594688516893
1492.7937275605623
1459.6157646287527
1411.6013121378598
1366.9090757153951
1340.4831309999054
1346.0167705092701
1383.1251094968613
1448.722266965328
1567.149724498588
1657.5120723677921
1738.4529109884488
1801.1718303140487
1841.649271056972
1860.7663359924468
1862.833072728527
1852.8941939851068
1835.7489650697771
1815.4455973086256
1793.930708586556
1773.5515952890753
1756.7195440568169
1747.5368152595906
1751.53425127037
1776.4524944177654
1829.8510356257414
1918.7713219143343
2046.531545771974
2211.4416899376156
2407.926782887267
2622.6499522942404
2807.904899771352
2962.1936397455506
3033.5075053914716
3007.910196338829
2878.4988708678256
2649.8491184821783
2339.896001997937
1979.330996122991
1606.788384057406
1262.4599880257742
982.2245730445402
790.4438172227528
697.9119549318434
701.074649989898
785.5816082671822
930.7938413671759
1117.4737357086724
1330.8906299105245
1558.0531075258848
1797.0505029820886
2045.0189994035677
2299.1846815504464
2554.1790663642973
2798.9126360009673
3017.277515659578
3190.1351927378496
3300.4047210778326
3337.309411384451
3299.910087235447
3199.018654916014
3055.1541636513557
2893.1138072206586
2740.962714336595
2619.338496845528
2543.178359321682
2515.9198232112585
2533.6447931082794
2583.3359472523643
2648.048704421594
2713.773022429986
2766.3100063029115
2800.7591102758925
2816.2151587807098
2816.679980158499
2807.9304892020255
2794.830979041779
2780.1677339730236
2764.683078609155
2747.2593229445642
2727.8550254537786
2706.273456231308
2686.0143147666004
2670.7497104065224
2665.4715258322744
2672.318693699592
2690.4835921461354
2717.451412728963
2744.108050754087
2761.9720846222467
2761.313965187783
2734.5838805469
2680.135138352781
2601.6322595043794
2509.784186063846
2419.9317255944043
2349.2336333937837
2311.568407172753
2315.9800180568536
2364.0650908300263
2448.371425994375
2555.7550847547554
2669.3484359966733
2771.8657037348894
2848.993175650302
2893.0982840935985
2901.0980182330577
2876.087468633502
2825.7438679225497
2758.37807705007
2681.674230497536
2601.794853151114
2519.0927558148037
2433.444264593796
2342.87660027144
2243.714533950685
2135.0542957877383
2017.5832613919495
1895.465798207717
1774.9437492604252
1663.1004109103642
1566.9140718420244
1492.2532103773192
1442.5506094422005
1420.1935075956317
1426.5479843448315
1462.9061353475445
1531.581760473201
1641.807400036897
1794.4922911985534
1994.8216305200006
2241.126976246001
2523.0002827015087
2819.223838444606
3102.654718180913
3341.5303039477094
3500.0986582447467
3550.3463891743604
3474.619154823901
3270.2428309696675
2949.953975515682
2544.502509592471
2093.852990913061
1643.8707146411261
1237.36387824432
908.5799131219735
677.6720805286111
550.5511471628984
519.5995746391518
569.007175833849
677.5179198198525
826.1692893078814
999.0615244961141
1186.5993987215684
1383.3044000653758
1587.0603637631011
1794.6759348021487
2002.730557934633
2203.2140285991436
2387.8288472557283
2549.1966735067954
2675.2375816187787
2764.351371334091
2814.1920663146902
2828.5169752688607
2815.731514267151
2786.119768319758
2749.586780403956
2713.47930713025
2681.9088293678387
2655.2957343509456
2631.9468025502238
2608.9363475487694
2584.311741498184
2557.7628355506486
2531.4121752254005
2509.5035513977646
2496.8892625923054
2463.8444244484713
2430.4060864982616
2357.416673147005
2237.9628008852906
2062.4093414493086
1829.4537072610715
1542.53074191406
1221.4641876975172
895.7857907286811
600.691919625496
370.99187603075393
233.90368523001325
202.97973921423068
275.2173384276223
431.24401391340234
639.6971088136142
863.8513801985364
1069.4280486869823
1231.1214561304555
1337.0615603921
1389.3599336540522
1401.6138214749217
1393.7671722485202
1385.8084593151857
1392.337086975121
1419.052273262756
1461.7327374429642
1508.7287837148324
1544.7596661202049
1556.1667273011542
1543.8960420191947
1505.3642074719842
1461.0216870659121
1428.0372243914278
1426.9028549903487
1471.7965717057352
1569.3871147490447
1712.861199705802
1885.2588326822838
2061.3746047288682
2213.9248171464337
2319.709606559466
2364.7098543362736
2347.2901613278855
2278.6444056857363
2177.376252216088
2067.1215693728604
1968.5419286910897
1894.6670404643899
1850.396033023506
1829.6484285604756
1821.4382850710863
1810.9517162523207
1785.9005041163578
1739.2394331663718
1671.7131969473908
1563.3267549600957
1492.1137061622367
1441.932106376808
1413.7379905862085
1404.711678058117
1408.925566934753
1416.0764340756318
1415.067831129244
1397.4029217271
1360.996696265413
1311.3754009070324
1258.3846817048852
1214.9341508073699
1190.1693745592288
1187.7852109758637
1203.2322226368021
1223.652422285514
1233.3063419795942
1215.9351801435873
1122.5925749908224
1023.6175001828
895.2421466212256
756.0252732224847
629.2383617653516
537.0693910148989
494.9754381690552
508.20271004746405
570.5962531358898
666.3242015040528
778.6575963162106
891.7061036229024
997.4211504399086
1097.5279195305545
1204.615368712136
1335.2891612061278
1508.3846996718262
1738.066719389307
2027.251573749727
2363.372245305491
2718.626407532255
3052.905687129736
3322.5107169056855
3485.9553292200953
3515.2985752483155
3399.366149978857
3145.6873902556135
2780.153193221139
2341.6132885138604
1874.5579134927498
1424.4488018808142
1026.63373165745
710.288259666971
485.6954299264348
355.44263134253083
312.47796488227596
344.0423792483191
437.42367548818834
579.8247561490509
760.739629573093
968.573746929977
1190.600906142869
1410.6126215202594
1609.1168166305135
1766.3986315702368
1862.946966659136
1884.3900812279073
1825.8082393263956
1692.1266780020712
1498.8931922355237
1271.3153344594116
1039.169845257477
831.8624781000331
673.2927601627475
577.7842847204042
548.06913601305
575.7847575664648
644.5087839468563
735.8738974785208
832.5043539955441
924.1724355460674
1008.4536957447217
1091.0502985125013
1183.0832263439806
1295.239839826932
1435.6800391910347
1603.8902305008464
1789.923901851529
1976.131511872855
2138.637778066479
2255.1760068515223
2308.056354020117
2289.4486963159206
2203.334192194541
2064.8882858697793
1898.2517661580553
1731.479629769771
1590.9679532235152
1501.6973420525132
1469.8260923105915
1499.9816268913542
1580.7062719684102
1694.6846384981118
1823.4843172730089
1949.9907423618176
2061.484906550125
2152.154582063764
2221.6101187522295
2274.290939804667
2315.7457773709816
2351.614319458963
2382.97726601192
2407.9385800858163
2420.494230157886
2413.990553588042
2382.5760604753705
2324.4416480475065
2243.9708735799168
2151.8898849542948
2063.919938238499
1998.4217064959964
1974.2517379590142
2004.7090395888374
2096.476024073405
2250.9628286591283
2454.4380008324847
2691.084945618328
2938.454159862454
3172.428960448041
3372.7674159361254
3525.203593287016
3598.394916518347
3644.1832376278135
3641.6392559461806
3601.4107642531626
3536.035147865342
3457.6061879141284
3375.9591260510315
3297.6850044629255
3224.4368644937767
3151.6513754832813
3075.844138698504
2988.485752618336
2884.75087023158
2762.684181597924
2623.7669814983356
2474.042920618354
2321.78954959051
2187.614690637972
2072.7078099730693
1994.50052164748
1950.446007140808
1934.546682442213
1932.6414632615829
1927.5284234787332
1900.1093533444316
1833.0361182135543
1718.025842250788
1555.6696398526644
1358.8793673289647
1149.470122109808
955.7102052957334
804.280659310982
715.5459800402032
699.7576845286117
753.1413261635018
859.9605995265254
996.9832018419277
1137.4153096591692
1258.171081729439
1344.4379349432697
1392.8455245588325
1410.5978392969805
1413.3005229951357
1419.1548920433083
1444.5371599690613
1498.9781212057874
1582.5126264864557
1685.681379869043
1792.8191960002805
1885.4824027440773
1948.3944529537118
1974.5311060686374
1964.0910932126474
1929.1456599788291
1886.5753386037313
1855.891639973976
1853.7012079910273
1889.9813667796964
1966.1464664536888
2075.2689798781134
2205.2473672122533
2345.701711775092
2478.4445219053664
2599.8038437844416
2703.592039112177
2790.9050045420854
2866.325102740192
2935.4131327888417
3000.9059961619314
3061.7324102812454
3112.719487095481
3146.4254752044717
3155.453939346088
3135.505074176798
3086.806740592289
3015.423012718705
2932.0071666709473
2850.0002360125195
2782.740051153429
2740.0936413946565
2726.0951207266075
2737.1221467656487
2764.632631571956
2793.318808506036
2807.205542369832
2792.4361519919958
2736.3596009538624
2635.3629526926075
2489.690933296155
2306.3694142090894
2097.313681866841
1874.3311676809797
1649.4408466636132
1434.8159077537523
1237.217206887944
1062.973508492457
916.1803405932621
799.040310881993
715.3363418180172
670.2382952778457
672.3590076400649
729.8368564555485
851.966261706614
1044.895140594946
1311.077481220287
1648.3657938828374
2039.2498781353438
2468.037903541189
2903.739629447882
3314.170892462639
3668.3868183190843
3940.1979170731474
4111.878292150087
4177.030252801084
4141.730326648442
4023.496465898451
3848.165542255031
3645.3013185834175
3443.1225118519733
3264.052371406391
3121.82102992412
3020.651027196164
2956.535521620356
2920.1163665837826
2900.314233231501
2887.7406593227815
2877.0533592500724
2867.755114328762
2863.38448176958
2869.480637539025
2891.011368186777
2930.0578583403876
2984.434715929654
3047.6300309265703
3110.065189916923
3153.044278047154
3177.1587996474123
3168.2394150736736
3126.280593425396
3056.9022082551865
2995.129029639532
2902.4210553575786
2817.743798017696
2752.32694573927
2712.583193311338
2700.1678726861255
2711.3873325257086
2739.0509274975248
2774.2050660978175
2808.7050649852945
2836.8201093129273
2856.5251441556643
2869.5115257423813
2880.2578120066055
2893.787702346993
2915.2899686798914
2947.185717475385
2988.6236745514025
3036.8972365788927
3086.0858923623778
3122.1518401261073
3150.7179222317263
3146.3637827787334
3098.94977669929
2991.6687687148387
2816.5690205328697
2569.5231025149583
2257.9968403619187
1891.2036061173737
1493.0718334709914
1093.5510353251893
726.1883172675798
423.89136785789606
213.68180690697386
112.04696131030869
121.57693533679208
230.22383947488197
413.6969391843984
639.8281545861471
869.4903667761748
1084.2569332017256
1258.4592662033267
1383.4633244106462
1461.788447469879
1504.3187023878577
1525.8803950813112
1540.5063825896352
1557.661943108546
1580.1915573467688
1604.502334759073
1622.4917802988202
1625.092515713714
1605.4929871345812
1562.0055267720645
1499.0579989803302
1426.5307959460736
1355.6604030628412
1300.792182156344
1265.9059485609628
1263.0216219038196
1286.3234983574528
1327.9588627351598
1377.0287445777715
1421.9485378137936
1454.068534141197
1468.889137732317
1467.3976553051743
1454.6755893026516
1438.6420162017903
1427.1326125719338
1425.8046136120183
1436.529245449864
1456.9113877142838
1481.0766529392108
1437.8797282204487
1493.7037532017362
1589.6814531309847
1723.8300420955743
1897.7425038897218
2111.1409714023766
2357.2912776232124
2620.8736640275274
2878.1389612377184
3103.3422680387453
3270.814495925505
3363.658338504968
3376.866241248884
3318.677875198574
3210.0109562405296
3078.255063110606
2953.5214864138843
2859.1371205047
2809.613678074533
2806.3663769444815
2839.5479987477365
2891.4199628586957
2941.5479730488123
2972.378762714331
2973.719041028413
2944.9941179651023
2894.8013421713613
2829.659201085003
2762.7637798323744
2697.105721211472
2629.350448885887
2549.7339658107207
2444.2733090837273
2290.9781910144397
2083.728940185461
1814.8276813479688
1557.0441367873452
1210.812805085828
875.2458014993317
586.9772109622886
378.22418803792357
270.1129049070039
268.5776186640692
363.0161349924922
528.6087062382637
731.974186835231
938.0895408404017
1117.4644000332141
1251.413137162586
1334.4920207774612
1373.6454038237623
1384.2790766607063
1385.144966650325
1392.2124550518645
1414.7116969817419
1452.9109262371521
1498.9507472358698
1539.730280895858
1564.345893061011
1564.7779279389522
1544.22422181916
1515.006502318903
1497.5532659170988
1517.4150145766766
1598.7059934829017
1757.6312750760114
1996.8941657971163
2304.1148312381733
2652.1580570835213
3001.6994532883054
3312.182828558797
3546.504578844998
3679.069490114326
3702.6785291648607
3626.711422812582
3476.88096331302
3288.9269913008184
3101.503945291667
2949.419894967301
2853.817984187664
2823.864505311544
2850.928135322452
2914.5602970281607
2988.290377363565
3045.8200524234207
3068.6727228192954
3048.2903275685485
2986.9188398759493
2895.027413799626
2786.502751506535
2672.574124991349
2560.309713332958
2446.157650133345
2319.9613450804745
2168.0506310629166
1979.0232976003049
1746.306533760105
1476.7070048132243
1187.4085187027872
904.8630102441425
660.268520343116
483.64152258989543
397.17344116732625
409.96784391663846
516.7272698954798
698.9541993933631
927.2878164787326
1170.4110910927184
1398.8000903397551
1563.4853266382413
1703.243920180286
1787.6232170070014
1819.2020392865786
1805.4376123418385
1755.0115111308749
1674.514882590414
1569.7073706516383
1444.1328509439031
1301.328084420006
1149.9048323883712
1002.1547657906708
876.0161597839656
793.7476296891748
775.0835724823125
836.5557272672386
986.0158339866355
1220.2103031785603
1524.600516429531
1875.3764460572356
2242.4797421258536
2595.876289968486
2908.5075913410833
3160.0279301687074
3342.5152324163737
3455.5560283998175
3507.6960534929062
3513.0028893054923
3487.004686233783
3442.2190974172136
3387.048969789766
3325.088667695056
3256.486072456939
3179.447527339141
3093.995238200436
3002.4923562531476
2910.8565613858996
2828.0280342883652
2763.794529939662
2726.61246978473
2714.435793964554
2725.489341290564
2748.321445279841
2768.6857782334982
2774.079320884637
2755.155704001224
2706.2368238606937
2628.229938052096
2528.1430935891703
2416.2933690209243
2304.970329533361
2203.3423005569334
2115.8425331934745
2038.7709590933046
1962.5100976734298
1874.3724221885918
1761.2625336427923
1614.4574080994978
1432.8872285713335
1224.6566978228345
1004.9337900120618
794.3907240886028
615.2814587227217
486.1947606424392
418.87482877930483
440.78917808796905
538.3434440262502
760.0027528836827
979.003363878755
1209.6224572616466
1439.7133641634878
1653.0938065716796
1836.0347390924069
1981.3496489196548
2088.1569152359402
2162.2778571489075
2214.108865625072
2254.917045562048
2291.6911430841737
2328.0761044286314
2360.340014707637
2380.2744288829035
2377.751502638204
2343.7336854443156
2274.4367547221673
2173.950115890524
2056.0561154302427
1944.4743177397645
1875.376581200338
1870.5664008109434
1957.8748338475266
2145.952572379206
2425.477993955148
2773.3634499298087
3153.7491837329644
3522.9570191626754
3837.195008772327
3965.973083916798
4083.181445014662
4088.998176411732
4000.2601953633475
3847.9792198127657
3669.0030568926213
3498.722427723197
3361.063632574108
3269.106344140542
3219.6981249841183
3197.106223991329
3183.1622840388295
3157.902373747298
3109.132845905975
3035.235536276936
2944.6752692392256
2853.6688841744744
2781.203079048692
2729.3199738964677
2705.073531282847
2688.4585297198128
2655.1948890629674
2575.185805997829
2421.6861435998426
2180.149403775694
1849.6567853365439
1452.5099188322258
1026.7113014561037
620.3571193227021
282.6135030402088
57.72187733357464
-31.712502346916153
17.518474762078768
184.79425402969287
430.97140866794484
705.3559956089766
959.0855732056891
1152.7193001992246
1264.4675076721046
1290.1889220937383
1244.9036282041693
1154.5682185641026
1049.1802699945065
955.7428692489398
899.1520984705753
888.4645555511238
930.0913537263496
1025.702309782951
1164.7696076293023
1345.90556812364
1559.778928147009
1800.1565858701372
2056.685554873017
2316.651735325624
2558.402044940743
2757.6416307817076
2883.47593563896
2908.31272573506
2812.2595415791984
2588.1615620387747
2249.5634392937286
1824.5687718079366
1358.1640139843962
901.3603354244265
503.2133705386916
202.8868287645971
23.109929974089482
-33.05228895591881
18.566296161828177
147.8612409286336
317.86606802637357
492.68949618820966
644.7486494612644
759.1691847248665
834.5107734295952
880.4317868227447
912.5297420412728
946.4948892672833
992.7348504203735
1053.2956826196396
1121.41413001794
1186.6509945427815
1233.4488189158028
1252.5291086541602
1240.2578368919606
1201.7609469352772
1151.5394430774772
1108.8474310974334
1093.2137023105424
1121.0624214844743
1198.6497481205486
1322.9433286252688
1480.2265900009625
1650.173755049776
1808.9110288416305
1934.0548502023332
2010.4474613994419
2029.6227390645936
1994.0471593733098
1912.5564776042092
1798.8942855472415
1668.5006912925842
1535.1534084975067
1406.3708540786272
1289.4263440473837
1183.7658291384867
1088.98260843077
1004.1650057557299
929.738155758836
868.3205782522284
887.2438502996697
868.49135437003
876.1477594689443
911.2840464965418
971.0001539178693
1048.332883109581
1133.232759329222
1214.3842585419409
1281.4116179286239
1326.9098225206244
1347.790899986906
1345.621038399786
1325.8905468228986
1297.5584091230307
1272.0344782611905
1259.5230688989795
1269.6493682947166
1309.0107705438254
1380.762732370419
1483.5325151109157
1613.4275115429123
1763.4520883895907
1923.9125885501612
2084.864537150344
2234.082370248005
2361.744062374507
2458.3643615986293
2517.5585850081056
2536.517399295752
2516.5708994262536
2435.8744772235514
2318.2159009578154
2145.394984645793
1933.1019726456234
1695.2902466852995
1450.7446718315114
1220.5030451245889
1028.2830936011278
895.8034810517356
841.25972447721
873.4043641908427
988.8635911079923
1171.2330886751038
1393.6348375358161
1621.2057903752122
1819.8243273321145
1959.5484724124995
2022.3708985094188
2003.594661417883
1913.938553703602
1776.0103636183871
1619.8520385663144
1478.350069499805
1379.6485661663712
1348.1490338546291
1406.757247274726
1544.814276112066
1767.1927216247204
2049.986304432849
2367.3275245553373
2692.311067419055
2998.653333309289
3262.935380844374
3467.0160637317667
3600.0655471462624
3659.695201434997
3651.8398878831713
3589.332013776999
3489.415267619118
3370.696263081104
3250.158496057058
3140.833750761567
3050.5519827344897
2981.920110737703
2933.385109516287
2900.993214006049
2880.32456760513
2868.0896095096946
2863.010738623806
2865.8376185079396
2878.593325449378
2903.3545874063734
2940.980346677358
2990.194235108434
3047.306679368475
3106.6689332322267
3161.740012132564
3206.4763016911156
3236.667345071114
3250.8601935865477
3250.62994737414
3240.131456366752
3171.771899015168
3075.071439069121
2901.4863010922954
2648.208542654609
2318.8821533370506
1922.586486154219
1479.8091788123452
1024.1537317816787
599.113943427355
250.79340888663455
18.586090295826807
-73.64393038439266
-23.39043643353625
149.65841943646114
407.31681610599503
701.2194089785278
982.9755957330442
1213.6792603737113
1371.287038013475
1452.7621463423334
1472.2911546884138
1455.128163125407
1429.5773367541622
1418.7874392512626
1434.9823108641176
1477.2360902011778
1532.7809018309122
1582.1402834203304
1605.4423160861272
1588.9281647697276
1529.200721894677
1434.6996040127224
1323.5785818990184
1174.487735298921
1176.8508064456823
1309.7452405809304
1575.1342896110891
1962.6545024629365
2444.174070742435
2973.6935701128723
3492.9325932742327
3941.2653172765413
4267.409521677157
4439.765786801834
4452.659914379287
4326.838373916236
4104.085636054511
3837.3536089249915
3577.94865740635
3357.6622770394283
3197.098658438864
3085.75743599239
3000.6823293740617
2908.4095691291564
2778.585720126609
2591.218341070482
2342.2472421673374
2048.0158580342904
1737.472005486601
1444.3752071712906
1198.2872271318142
1022.8027423937359
917.9066823983655
816.0347170264745
814.1028842752578
822.2153288776196
816.4230647378299
783.9541900279719
726.3198137455211
658.0044406391542
601.3233534553167
579.2914976259392
608.0851214462868
692.0557890005914
821.5628742373885
975.3137545401939
1125.333297743226
1244.207884169827
1311.804697393382
1326.5030520712533
1297.3995167745693
1250.5236938850735
1219.638785917098
1234.611564624222
1317.7738084792154
1462.2862014093193
1663.806304791124
1880.2170967755812
2072.617254643007
2200.0163184025587
2230.5749316886104
2149.904304408405
1965.1897765638923
1706.0689571085932
1415.9315184424036
1144.8372090501139
936.4939600179823
821.8085778744899
812.3632651900425
898.6013719959258
1056.0108119729987
1252.2922678327627
1455.5851636245416
1642.4757894484114
1801.8684931156795
1935.35602402138
2052.2842970602214
2165.2206855935337
2283.4911494693024
2408.5308340455776
2533.265904653682
2643.444513069963
2721.306628715212
2753.0954888757665
2734.376942568584
2672.5685705841897
2588.8337544746373
2512.9661350979713
2474.7128786845637
2498.7079111628723
2591.8644828186307
2745.6646281290778
2932.9317701509744
3113.7406953277505
3245.485094781304
3291.9784390374366
3230.6338030098323
3061.0827134446135
2805.158660241953
2502.9888159124957
2206.223861241359
1965.3441996269348
1820.3823937416694
1792.5728150761056
1847.0892608122049
1973.6773753108832
2097.334076956121
2171.6206539315294
2152.6415407716913
2018.9536409988582
1774.135717456898
1448.436998983909
1092.8649439538992
767.4259931397626
532.5610308999696
430.82036131913446
483.21029862203886
685.5859382448139
1009.8843098653733
1419.950093683091
1864.050664735634
2305.6069030395884
2714.140165177688
3072.1948085755766
3375.3275132159233
3626.3313893748136
3829.381629607872
3985.743938928403
4092.068931669788
4141.457374084218
4126.657791343012
4044.168463080274
3897.8057337521777
3700.5068376013705
3473.6816483857056
3244.14953894991
3039.3903216503372
2882.313721574086
2786.8876532544828
2755.735407611781
2780.2886666891636
2843.4159263000583
2923.8165563754133
3001.0449295670373
3059.9123401135603
3093.226558612206
3102.3018187657135
3095.2714983638207
3078.9713750207684
3062.619741978158
3048.2317604374184
3031.887705569626
3004.5146676265126
2954.59715952069
2835.6474931002363
2663.0929206818128
2382.5656451012496
2035.4917037026025
1634.275229212386
1209.3369465939772
798.0940193491581
439.84622224493455
169.38672882223227
10.255557889689953
-29.86518747147602
41.46402819556056
203.90910397037646
427.8938998249412
682.6244897810466
942.5319477253045
1188.1248670538803
1410.9203037927164
1610.8920401489224
1794.152627724104
1967.7547334960032
2136.03322410572
2300.8474844324865
2463.5372748528207
2616.5067683717843
2755.413517744276
2878.467659205035
2982.3657031551047
3069.3394152804512
3144.3035416684606
3211.8766507124383
3274.1066054777475
3329.468842410653
3373.309623101057
3399.4896017435676
3402.657401026717
3380.430892109215
3334.8179347968317
3272.4443750934333
3203.5034203765863
3139.698937747704
3091.728383778237
3066.346362714565
3065.938824456779
3087.0029146690385
3121.7766627686424
3149.5187909916276
3155.6629063479963
3118.7166847165363
3002.663742212435
2816.210243433921
2539.3221688681624
2188.483996713418
1786.7218641564436
1364.7936255129405
959.36827009494
608.4681622088763
345.30841299684585
192.18183860433078
156.0749119140171
227.36777405866974
381.8085542144504
585.6228397402015
802.4670052252918
1000.3673418059068
1157.3283581170076
1264.3471006709672
1324.8569329776037
1351.738684608944
1362.0361423376048
1371.5424487837895
1392.7723994139483
1428.6430773921675
1476.3344918036191
1528.6606611015764
1575.4221595222693
1608.3138612446114
1624.797172323388
1627.0280913878366
1623.416322513147
1625.5207192264322
1645.613657829898
1692.9575213481276
1771.4487072282452
1878.9143619716253
2007.7378542918937
2146.2323960361796
2282.2393192744976
2404.3261281708874
2505.1009974625645
2580.3647174253924
2630.6540469058946
2589.5470250301014
2559.5665343399287
2468.5551055551596
2321.87761727023
2123.3419611758186
1879.50986105746
1561.6522915138269
1265.0150890619686
981.8947125307504
739.7036542023561
562.4106401393519
465.3757265610202
457.1469049777768
533.5815984595606
683.6171314543426
892.7328884101694
1147.99797564037
1439.7437989338457
1753.8963630883245
2090.9692665451703
2441.38272812816
2795.537893467606
3139.559824110025
3453.753886557353
3714.2343693752314
3897.1833145837386
3984.4030543842896
3968.44539010743
3855.7201912837836
3666.5539990587395
3432.0136731458724
3188.191862177529
2969.3295704001157
2801.1232760787566
2696.238989646576
2653.7927947382586
2659.578871730003
2692.8212075679894
2730.416763162776
2753.767956294963
2752.689017719225
2726.772043986253
2684.8042832215206
2641.053560575123
2610.438194337068
2604.313309467302
2626.941195293087
2674.197695818614
2734.85516598054
2794.004877476635
2836.8398109500476
2847.3701924915367
2819.3846349037394
2735.247852963053
2606.084378858731
2423.3698263353826
2195.8685349898215
1932.8621411503168
1644.9517039084308
1343.328456085252
1044.351740525325
766.0656305636448
527.5721023879746
350.149207457353
248.63712763610965
235.5678851288626
312.91177507537327
473.746436815288
700.9634646873653
971.8606203965551
1260.3815995203981
1540.6907454363889
1790.7021054521008
1995.031626702079
2143.3865687650946
2231.262985551725
2259.37289004643
2229.854105022442
2151.858627663428
2030.778175597047
1877.4510071956947
1702.7814815170673
1518.7206939728378
1338.507289068007
1176.7164599717707
1046.7317101586466
959.7100707888192
921.9399054099149
933.7027261544936
989.0100832232852
1076.5292063239292
1185.3458694520605
1301.7030519852651
1418.3031263804212
1532.284967217022
1646.1220182137454
1767.2006841067953
1906.079696700965
2069.727937234757
2261.98958699952
2478.433124606643
2707.31437686125
2930.343136449176
3125.901363421254
3273.2041210218476
3356.2775169544393
3367.214721672439
3313.7209149003083
3207.1784533297914
3069.4107621275916
2929.578845532592
2806.1918740143146
2713.453270469292
2653.40682793723
2617.7066981921053
2588.967679300949
2545.563372954175
2467.5105908736145
2342.8314731414966
2170.7350810044477
1962.7462793413474
1740.3148253709383
1530.7517809027054
1359.8180118461557
1247.1561952239153
1202.889746235015
1226.8236260466224
1308.269734733862
1432.447464312181
1584.300063465964
1757.0386744258294
1938.3422514071583
2133.02037612982
2340.9833931357743
2561.7586011277053
2791.715511675622
3019.9600144458855
3228.086068405385
3393.3760649522146
3493.3383026156725
3512.5003343321205
3446.314588191877
3304.208655256093
3107.898910005242
2887.7916264329847
2676.712679982851
2503.299623533323
2386.2242847867096
2331.7576923542224
2332.6056733640294
2372.5653011194486
2429.7395469378844
2484.0711508172185
2521.173059345053
2535.6221857659802
2531.6253791121644
2520.061727484872
2515.2481731409894
2529.6716510396545
2570.4787464314186
2637.3389772553637
2722.2075763113553
2811.587487174759
2890.967275891567
2947.385964195905
2974.1302195524163
2972.2914485919814
2910.095454977337
2814.9590648550675
2653.8767028776583
2435.8899887695925
2160.4099381481583
1834.694267518012
1470.8049639260532
1088.5845317707415
716.3157652436428
388.02641466698606
138.19882672800554
-5.663392848920921
-21.11738191936729
90.47102037113382
318.1090454064188
634.4869906722158
1001.0853503327719
1377.1526540918144
1724.057909660651
2013.33870424053
2225.550251793013
2355.9790828720206
2409.3275235451047
2400.8322726261363
2335.369172764348
2239.1031125674904
2115.5957543667873
1976.8422176183476
1831.110047961448
1684.2275032512252
1541.2433570187966
1407.8787875186135
1291.0616359921746
1198.182833367521
1136.3420968537828
1110.1328055090848
1120.4820027395758
1163.632043086398
1231.466339489809
1318.5176429208923
1412.814272512101
1509.8787297190904
1606.3032395531645
1700.2139032982022
1793.4570218104589
1888.7768945180278
1987.9513419278326
2090.7130047558285
2192.878253185838
2286.5075805854176
2361.5502558672006
2402.2318789284004
2381.817328890397
2291.297481256845
2139.753528404434
1941.526533022928
1717.8540612546078
1496.6574453820035
1307.583959940099
1178.726733834374
1128.5030307451082
1164.0359328626039
1277.1392929072151
1436.1637131713383
1633.4757409516528
1823.9288730414053
1976.7721159451603
2071.23422342235
2101.036750906063
2112.744730870742
2091.932622637006
2108.5872433337695
2183.704121317196
2332.6647047796487
2556.509540860613
2837.761043385527
3141.9821749275006
3424.5953338435284
3641.0201461284123
3757.30696126684
3669.489761045159
3573.5959886715627
3397.9897585818017
3184.2306281377682
2977.5725848022316
2816.503623924964
2724.4614392577805
2705.72443485959
2746.3170609405583
2819.4335739857106
2893.733993437422
2942.196412021557
2949.1778811276276
2913.923600527988
2849.789585764979
2768.4953253842245
2689.458951805589
2616.9364583134643
2544.4219494306476
2455.4964185933995
2324.8391504445844
2131.4382738312493
1859.7199213960134
1512.7540690769474
1113.1927153616552
700.8337239874693
325.99227310879473
39.23534833081044
-120.1757295778325
-133.64194036070512
-7.937173122269542
226.1696781629098
524.5516420574581
835.9105546439052
1118.9311904444116
1349.1993423213626
1525.7668777229367
1672.6760560232692
1807.9078114248666
1970.337686110847
2153.2093972974044
2363.4288321742847
2558.713660211472
2700.6600700960807
2744.4174706468502
2652.2892093250252
2409.7806231585387
2032.2214555480114
1565.4807000213352
1077.8755025718667
645.5046900419491
335.0073893810909
188.37541748863464
213.80763599168472
384.9025029768759
648.231363681354
937.1405442755852
1190.0463139620792
1365.3440563068016
1447.1018000250585
1451.9286237322349
1416.4054054473859
1387.1374928964083
1403.609717403313
1487.8743454728562
1635.4091091261594
1818.1298844172659
1989.45102095985
2098.9906125312136
2109.833530577823
2005.8742558158172
1804.0075778194844
1549.5505743005192
1308.8130583464083
1154.5032408005081
1155.5760051732768
1335.1285728157923
1701.8072080789939
2211.5890128554183
2794.9092527672765
3368.9275362967855
3853.7654705417735
4188.54226717562
4343.1181963495155
4322.633754368764
4163.854915469371
3924.465741294369
3668.2167177813103
3449.785913465854
3303.119815993975
3235.9544189795342
3231.493456051977
3256.3194387080266
3272.041762823609
3247.3440628416424
3167.170276676899
3036.7244283967893
2879.4672059950026
2729.9477069129107
2623.66497819598
2586.74477779434
2627.268717210785
2737.4127120272697
2887.637321763444
3042.6957912965054
3165.3473812125776
3227.6453292425736
3217.504643458358
3141.38673959774
3021.6164485232425
2879.1238058101744
2743.0039845340307
2623.1257533833527
2508.385730046121
2357.0856771300787
2192.4647605862565
1960.9857582215495
1647.5943840008363
1255.1048397880188
807.0506536713024
346.7075567145175
-70.51253985799349
-389.11041233489186
-566.5861548409862
-583.9163891162552
-450.2863262230321
-201.56147008770267
108.33569833986576
419.4082625446388
679.2656285707869
853.840688685256
991.8444933234291
1073.0784234069315
1192.3920319806743
1385.7524067785212
1684.624168723615
2099.0307995307026
2599.377563137198
3129.652645115885
3606.0554746699213
3937.103712958262
4049.948956849306
3900.4101848512755
3495.5991521011792
2881.827264404652
2146.525105446828
1396.2155882490385
733.900837824646
239.97556541113067
-41.58969489002675
-109.01681909053059
1.2423921250624517
226.57690589196181
495.0949386572338
743.1445817815288
929.1479240290303
1039.8403327265194
1089.5834025527447
1111.2941134929697
1144.1730931268385
1219.884011645157
1352.7363415966793
1534.8435938662383
1738.4824685125106
1924.0933071237382
2051.5277136855316
2091.69726076728
2034.6277363777635
1892.8014326285854
1698.060314263132
1493.5014610272926
1322.8665676075584
1219.5515216938807
1198.9076180247575
1255.3854121534307
1369.4410240175457
1505.4206266405847
1631.6850770492063
1722.215038191878
1765.2469883102603
1767.1426935694335
1748.0204695026723
1738.2109950424735
1765.883459104998
1852.9578301347622
2006.007008396727
2216.50385128465
2461.746841777228
2711.0115460500074
2931.4819118302703
3094.5801170565474
3183.19521304363
3191.4956514215405
3126.643530952165
3006.0837644453
2852.025486044458
2686.5105724999453
2528.749503485559
2391.5311667622827
2281.7178406033445
2200.995258183307
2148.7211509259955
2124.4057856442114
2127.835819551775
2160.841009702169
2224.830369007619
2318.931364397869
2439.856906414424
2578.607615046172
2623.3759371455126
2724.5087714766855
2760.382111759209
2722.6834872962013
2606.6536256245645
2418.2832160035755
2176.5893036189827
1912.2157649089181
1661.2378978169559
1457.3013357801747
1324.9289320323348
1271.0474145476194
1284.313750096689
1334.166565304766
1386.565129868673
1402.798326581487
1355.2636673310278
1256.5709301945453
1066.490165947398
835.7423598543851
601.0848323753153
401.8180554224191
270.32169609176367
224.2631255275578
262.7961981031965
366.9574441173618
505.4519213144572
642.5601062938417
747.1274862502391
801.9335184889835
806.6363903780232
777.2007243085429
744.0949840376863
742.8329780133579
824.9192957330056
992.8626161274244
1271.7359200798383
1639.1745889172746
2060.0957465347797
2489.973812617604
2881.157110071408
3191.447151083871
3391.584778919082
3470.7229097179834
3437.7829859501485
3318.873675714895
3150.7160711773613
2972.3718955166055
2817.2288062746193
2706.6325257800754
2647.0916333570945
2631.492529359048
2643.200554488452
2662.473375362395
2672.626781800511
2664.944654443252
2640.882126750441
2610.866473875873
2590.853612503196
2596.8220592572698
2629.924469311215
2691.0503431321313
2759.615831146825
2810.246913959446
2814.842838401951
2749.5903907736474
2601.3527725150207
2372.832688959786
2084.724547578771
1770.8606974101192
1473.32886983646
1231.8628348203724
1075.6363993661005
1015.1155006770258
1042.2763475814127
1130.4549623020825
1243.6377270948624
1343.2369401726542
1399.4623386356784
1396.7193174188974
1337.476069871379
1240.8068080573898
1146.6946275025532
1085.0238027837454
1093.9092591778062
1189.6374601917328
1370.9747632423282
1620.5660149027349
1907.9716994838761
2199.9106490848653
2468.0619368319276
2698.5357845504027
2881.102164894805
3030.936828998175
3161.334028751141
3290.0375753002454
3430.425639804058
3585.1476641854624
3743.86607926139
3885.5156082901062
3984.208875650023
4016.934090766527
3970.7583076530937
3847.459884518483
3664.2824884827305
3450.6007181086106
3241.406012667847
3069.3596489344072
2957.502804721268
2914.487912038348
2933.4814582909185
2994.8936535699677
3120.2520317853932
3189.4594234033084
3227.811489254857
3226.522642082893
3189.1873625387975
3129.6323018343082
3067.123012112247
3020.451489097699
3002.926889649608
3017.7006712938073
3058.5037012242055
3110.184629075533
3154.757700329198
3174.556141249886
3159.064365121616
3081.6653172766014
2949.0251850421537
2740.6906018466507
2470.27105482764
2137.7263443508346
1761.3439611242998
1358.839657990146
950.5589395541206
560.815160555351
216.9973270851358
-54.21754447662602
-230.9661658734924
-301.29160169075
-265.9982797253199
-139.48216103347863
52.60068616939952
277.7004147789496
502.48419396094505
698.7413263652227
847.8624605558657
943.210166843312
989.4068990355296
999.4557975114369
990.1409824186056
977.2056505690113
971.3354235853026
976.1765990834753
999.903638354672
1039.7447554375026
1103.3825039083695
1198.4279909232218
1340.581427541923
1533.6475367068524
1791.153019486498
2110.1208573605554
2478.5779864736464
2873.1651110821213
3260.2165714719977
3600.7773561763065
3858.1726051556607
4006.007503183522
4034.3513982373406
3952.3610023797573
3786.566526063687
3575.20450368524
3360.0137419754965
3177.543643672284
3052.101049963024
2991.9803239691637
2989.727743364872
3026.1354008138314
3076.725280816207
3118.911551187536
3137.953863385236
3130.176054933798
3102.4772195891446
3069.393322822496
3049.0434169598393
3054.662054361191
3093.542297735005
3162.242721934671
3248.4212697127477
3333.8169882230595
3399.312045291001
3429.8188224772225
3418.8933924019293
3369.3646121038482
3282.616099622318
3170.4605346333065
3036.082659021522
2877.7534415617897
2687.476322232336
2462.6308720021507
2190.2332169035412
1871.2818094807471
1514.1499683954369
1138.2881124678395
773.9792819942525
457.84402381993755
225.401732575589
102.83865547108348
100.34756515692675
209.19319395882326
402.6511066601572
641.7898474931251
883.5793524632029
1089.6706199800553
1234.4521246587701
1308.3661144349167
1318.9793871353402
1286.1825547906342
1236.1227554646443
1193.3366152336575
1174.4434652500227
1184.4907714542119
1216.6243114907927
1268.0669259206334
1324.6773063575647
1321.580495996898
1349.9831286054646
1351.972517705934
1342.565397467879
1336.7336219544302
1348.4554060642845
1387.7919857873503
1457.0428322230166
1552.031589102126
1662.2596050619186
1772.9544649529685
1869.2853840897124
1939.4330208541985
1977.3024087043696
1983.0426578202432
1963.229302210716
1928.1779692778769
1889.5092901739313
1856.8324030242466
1836.3403136403592
1830.145233320054
1835.9342723729271
1849.2744061200253
1864.963322734705
1877.7251849968882
1885.3063375992733
1886.9462367036497
1884.3393932726167
1879.786464839729
1875.9194226353627
1873.4597492763878
1871.4175536648906
1866.130993149009
1852.2885922436
1824.3824595195679
1777.6200444085828
1768.8882753009643
1677.167682539538
1564.17195513248
1431.710405727772
1285.0593265653883
1130.7073494419387
975.021788449028
826.5131479391439
692.9593764496735
581.5093186352447
498.33550268584986
449.22605190994955
437.84788031485846
466.982975592043
536.7140871400377
644.7548125476208
787.081459332335
956.1867749987682
1143.7406987114787
1338.927239923029
1530.8609615731348
1709.0902383155008
1863.8684291113193
1987.3489106699972
2075.9082729045404
2129.149634834699
2151.400319177803
2152.366776821498
2142.0715063295347
2134.742460711769
2142.069840434735
2172.999526578734
2235.4534054043775
2328.7113199712917
2448.534214449007
2586.2093199776127
2728.584031723294
2862.5901769517586
2976.9822479100444
3063.4118155915776
3137.502240522941
3159.426837560538
3152.9751135901415
3125.272602627451
3084.7159825070794
3039.671362193507
2996.9077942745516
2961.039255217066
2933.9029840941635
2915.1583991939106
2903.227642559401
2895.8767338675752
2891.7529742137394
2890.221575468725
2892.296016053378
2899.2738265897456
2913.2344365904273
2933.698663219955
2968.095945535885
2887.22651160642
2888.8880871280653
2843.2511121371313
2752.1983791595926
2618.422456701587
2450.740390440454
2266.3442306535153
2090.6978783281274
1953.1796976268756
1882.6545068269595
1897.964651377746
2004.427392719937
2193.8785425185583
2438.9111405005124
2703.828821105048
2948.8944009284805
3136.2283153439776
3238.3806460082205
3242.9359730043584
3150.828047450045
2975.397014163769
2737.5346902464007
2459.3221178341755
2159.4613252096356
1852.6622440666536
1548.6398885627027
1251.734177833788
967.1362638336984
700.679860013601
461.57762365648205
342.9386436042248
191.35827331804944
107.8631639343896
99.84866681632934
165.80058233278692
294.03423382804317
463.8399790756796
648.8626565506831
821.9265288909646
960.1262325986125
1048.9372239007184
1088.778192205296
1088.8945019965886
1068.0408440556694
1048.269658569373
1048.6047972102292
1078.7689727055476
1138.9629784634685
1217.9898807467985
1297.0801406128862
1352.7649735847401
1365.2551971835733
1321.4598573538578
1222.1356265100344
1080.689425716744
921.548549633746
776.1887858049538
673.5255999681729
636.2383598524225
673.8509057214083
781.1168309950096
940.6392348137567
1126.466098045464
1309.6313444715352
1465.2146428391682
1577.4310445901292
1641.9167692619276
1665.3963330961526
1664.7120622977525
1659.2663849834132
1669.7005931059423
1710.4730637889738
1788.222010895421
1900.3306914868785
2038.7191389769232
2192.5190770994977
2353.3542836458464
2509.0870282093024
2660.3612958114286
2803.9066667692487
2939.9394701820916
3069.1266655163295
3190.1410758602005
3298.4983740988173
3386.9396554299683
3447.153221873724
3472.2440671969434
3459.15922134877
3410.3071658563467
3333.8516499821503
3242.5398885117
3151.333858929696
3073.9505584551725
3021.761782548218
2999.0860455346447
3005.322541852818
3034.022886087271
3074.220603879502
3117.2154060324665
3152.3930180549632
3176.05299538794
3187.6424915964676
3190.713782581287
3191.3710626981438
3183.1056858041006
3170.0984822362493
3136.9141802243475
3069.981884251364
2953.604948669984
2773.4269322332857
2519.8610757045435
2197.010055505069
1818.6983530476016
1412.6536656438248
1015.2530557792944
664.5735173148648
394.25731543359984
227.43393134563917
172.66949447003935
222.03869048045203
353.5329363936255
535.5863358378374
733.8025698850045
917.7320846660089
1066.1689135702127
1170.1301056716122
1232.4613625288603
1264.6823334656658
1282.3617706389532
1299.7570356472552
1325.670113848051
1361.1957404057732
1456.4615945186997
1567.5004923513015
1743.0643916703693
1971.3879823559082
2246.2623072235256
2491.8482075675347
2843.2653742488337
3201.4255181575472
3537.769124728042
3820.2096320492383
4019.4065546593847
4115.378372497201
4102.543059066823
3991.7074048849668
3808.35981918565
3587.6159236529625
3367.048309802053
3179.16765841239
3045.3792669583017
2972.816637683877
2954.6794115524062
2973.792679892933
2971.6339768006474
2944.531571791394
2838.5291895241253
2646.0982436372738
2371.5813845879866
2032.9474474599488
1660.4976867035784
1292.1259720720104
966.2765581337228
715.8788512775916
559.8760089375294
501.8065243941028
526.7270858860581
607.6789371985269
712.3360933637764
807.0991016237415
869.2122822929641
887.8251422920173
865.6523324192624
816.9724003610747
762.6971531569889
723.9788998267791
716.1380058498414
744.5965658898783
803.6926475619869
878.5823054123427
949.7712140927524
998.5401338208511
1012.2740049427297
987.587131162735
934.907170773432
869.9978429808657
816.8608767609464
796.2103478283091
822.5992728336528
899.8508173157295
1020.7457920062268
1168.326227571211
1320.6520259024637
1455.3400623553757
1554.1506156588275
1609.8044223714778
1624.59443579639
1613.3403140786572
1597.7738622469992
1605.35461290201
1658.7935745387963
1773.9436151671434
1954.4176175122745
2192.9882044857377
2467.4346682129853
2751.9574427693824
3016.5974305641985
3237.906347015992
3396.5661283980153
3487.07782257055
3513.3501360411856
3487.9004933170986
3429.1830650527795
3356.9826332212806
3288.045076313696
3232.960628948639
3194.9449106263355
3170.6443890197897
3144.275338206332
3103.790379856691
3032.743286361918
2919.0802749671484
2757.889268761965
2551.028342728644
2306.8364206749984
2037.61256321629
1759.1097376024588
1487.8396404223308
1238.9344194599942
1022.5501974371093
844.9175838034632
733.8026032590785
658.22739456572
634.6855836360685
642.2634957948985
677.9574197232957
736.5261197785283
814.3580411962216
950.3273836511335
1053.0009268414535
1166.2775607251424
1289.4574536976925
1419.753715632872
1554.5455025185174
1688.0621063429742
1815.4242711581235
1929.8850974829022
2027.4836864325675
2107.22823197159
2172.446004931619
2230.466296754429
2268.0339188763983
2313.135647999371
2351.9466631006317
2407.0220432008846
2476.56334553797
2572.4787389158864
2690.1890254599953
2824.361138576657
2969.2159703913007
3117.13812404237
3258.258321776886
3381.191265622302
3474.739890547334
3530.844980364518
3543.689969821142
3515.0803794168487
3451.929188940426
3365.7049049568163
3270.267756006878
3179.2179326125333
3103.388980078863
3049.072533269305
3017.3623230817902
2908.0282973402514
2886.121508467464
2850.6847688330276
2801.879476159844
2740.204637714177
2674.093384173225
2613.819238905528
2572.625561167614
2563.083016045367
2594.0147370266322
2665.783047762808
2770.055842332359
2891.051847624756
3008.8799187100026
3104.056464042805
3161.9839724972117
3176.2099846858096
3149.6377039896297
3093.421390554525
3023.894357792993
2958.379408123961
2910.991817858261
2882.394989674214
2869.2460994839103
2854.777413106006
2803.055352486455
2705.15877088468
2530.1435086709157
2276.020551382026
1951.890752617626
1579.7016479951194
1194.5484198172053
838.3328856704513
625.9646677360324
443.53283945246744
385.866990307582
454.8906289872191
633.3664792610145
889.9483294086442
1183.8867981864053
1472.016669284042
1716.860740974389
1889.902794536069
1978.40390749597
1983.1288561102242
1915.9433047743116
1798.395824793015
1653.892616094194
1504.1147873716554
1366.0856642013919
1250.4457593834065
1161.181384496167
1096.9530343249744
1053.0003155135764
1023.6429726608156
1004.2101491774634
992.4510463581975
988.4301931733861
994.1005445514161
1011.681433477617
1042.2525700488304
1091.8358768041317
1158.2230958607693
1245.3322814177702
1352.8345383262945
1479.7696800332044
1623.471740917237
1781.881150107084
1949.535414434041
2120.3775576841285
2287.7423662005845
2443.8215975096687
2583.846732077671
2706.01491021005
2811.109952784058
2902.0091987523488
2985.2791075251516
3064.928918976837
3144.6904151680346
3225.322636335598
3303.2984722539522
3371.1753737235317
3418.389297082086
3435.146800893132
3414.539535269502
3354.589432027136
3259.6303887684307
3139.747869207885
3008.172278238453
2879.1970843051045
2764.797350359442
2673.11545535378
2606.5510681480696
2562.8345471406883
2535.6316336775512
2517.134299595228
2499.9039271943757
2479.372677488531
2454.1441068001086
2426.290058088912
2400.296017367534
2381.551268256819
2373.6038144620334
2378.4611324086104
2421.3858908148773
2447.661808313613
2474.574620352115
2495.831626006926
2506.6166866531703
2504.864803841735
2491.6780713359026
2471.053465366923
2448.9693216310743
2431.5011822317456
2423.779365193505
2428.418126058541
2445.2681543257822
2471.499923400235
2502.590997726993
2533.5908687303618
2560.3771344969155
2581.009325320968
2595.1575270111975
2606.1785607171237
2617.081614574511
2632.64821444001
2656.0918903919005
2688.93288185283
2730.817705470319
2779.385294011032
2830.962853089859
2881.9441420279504
2928.993436639096
2969.5726296685716
3003.2136969014555
3030.0727254189187
3051.3462845764743
3068.4493667883635
3082.3329435169953
3039.100211762946
2969.2609079538743
2813.28624286955
2572.2372785949174
2248.6359945611016
1853.594400247666
1411.4336591234528
959.2248645905627
542.4848855683456
206.32409248943645
-13.496745552250104
-98.6555189670587
-52.41090827666676
100.6198909728837
320.48923924926385
560.0536237787862
775.4559200035205
934.5277637770603
1022.610805014497
1043.131290151589
1017.0696628774446
972.145721505681
939.9898235082599
946.7424105623993
1009.5881094122135
1131.4761897698797
1307.7897071792895
1525.8228123670299
1774.2865814328081
2035.1928393164676
2301.8364250777486
2565.2152877232684
2818.409188127943
3054.1383812890863
3263.5367559626184
3434.214979634262
3552.504264641451
3604.9479249783108
3583.3976655039787
3487.378557796661
3325.594698241077
3117.1008592979897
2886.6907874069707
2661.9856301180007
2467.9618699953535
2322.4022084619583
2233.1060855365604
2197.4470064887973
2203.944864936118
2236.061334322028
2276.3475803975534
2310.6550087732135
2331.1623760979787
2337.0021276126117
2328.158824884188
2309.4273688284807
2281.483489063638
2240.578606890505
2180.0476128218093
2090.5276513902213
1963.3045263536328
1793.4649071269284
1581.7656404853178
1351.9692101290111
1122.93283212087
914.96524636698
748.7996054344594
638.9786222280147
592.2777482880879
600.0200747983215
646.2345833913425
708.2428425638511
799.3507172498341
828.6517071959543
826.7183057560394
797.8473285580424
755.4563236299723
717.5067666041507
701.0979293081468
717.2094276899338
767.6841593845093
844.4906438439443
940.1562957643898
1037.763828679287
1131.8015885792163
1219.793517531978
1308.0022841688244
1410.8268608113335
1546.9791095230594
1735.2736708817074
1980.1288967722821
2282.0287181610433
2620.327544022616
2961.8427799079645
3268.9424686887833
3500.76244870992
3626.1454698719162
3627.2533175192666
3504.554394174934
3277.2405489826915
2977.82852170372
2646.3779840281522
2321.63143844016
2034.437316582446
1802.6921007476988
1627.2182245266604
1496.2632950111977
1378.100448686098
1258.7246186874581
1109.6360060158568
927.4608308648515
720.2014897291244
507.32719360209194
316.0021364005361
174.60950942480895
105.45986628729133
118.75721753982612
216.36478358602017
383.2441583306834
599.1685927709048
840.4619556033151
1083.7184058755963
1312.206840286104
1518.8600930830603
1704.0918636624033
1874.2306877351211
2037.6524350365908
2197.544565312728
2352.7637772269236
2495.652589841398
2613.2730043495976
2692.9630977826314
2724.5187831925946
2703.2668000048334
2633.121474601469
2525.907731053087
2398.642735868895
2270.56256192291
2160.482866384247
2081.849688916218
2041.6637440183772
2039.6854715342406
2070.6527530098265
2125.9478826659247
2197.749097530054
2279.500902354097
2367.1954500486836
2461.459355385717
2562.0574198459253
2669.72759484402
2783.4716076218965
2898.614343603506
3006.7377161687837
3097.4387660410757
3153.7251594403133
3164.9889099806214
3120.852669126865
3017.0757688965014
2858.394731531619
2672.330602433146
2471.9669978840047
2297.0517405420355
2171.869772040872
2117.8660129406835
2146.6234893781675
2256.736556557018
2434.6467025654238
2650.7555318111818
2869.2403824917596
3050.1473499450276
3156.9908365085553
3164.786024464149
3065.096660901192
2865.134073671854
2586.2581795481838
2261.704765752066
1927.1103265450251
1616.7813395362778
1357.4012801921021
1164.1748999343326
1040.747245077726
981.1372474954296
974.3465244855358
1006.8860116584905
1069.7439134630054
1156.6650404774637
1267.2084227327573
1401.9899853846664
1561.7569389013877
1743.995078990575
1939.4905812684483
2138.687321539658
2323.793707190084
2479.7280484097387
2593.026656896979
2654.670939286312
2665.240622116491
2632.134823891235
2569.551001676969
2486.1087945434538
2418.9760091879893
2370.242263230347
2346.4434797436907
2345.0968835323074
2357.583203826159
2371.335733264681
2372.560192001364
2350.75118823545
2300.7823794970886
2224.433863215104
2130.003077817281
2031.3986008624368
1945.9369147197983
1891.875324184077
1888.0826883112613
1941.193858623372
2055.652666107441
2224.215761454992
2430.44935409429
2653.7896879516056
2871.730418732029
3062.881983596166
3210.1980857076996
3303.582396135158
3341.224315039487
3329.324736139958
3280.2734357781574
3209.720025092478
3133.240190954414
3063.3732310740056
3007.3264850832957
2966.5268040159353
2937.919763215097
2914.840140645973
2890.566180771001
2860.3717874548997
2822.5138700355296
2779.044915632814
2735.2960960065748
2697.927896603355
2672.7724332957478
2664.0840262577926
2671.8984309731172
2693.050650961667
2721.2543522688748
2747.3774884430413
2747.9853809124934
2716.773611960806
2632.098571044757
2484.2625562487856
2272.1580054632677
2001.1441468993362
1686.3216851773577
1352.4526802654304
1031.5367872195293
759.7710101733876
572.6495414767528
498.5167010983605
553.0489971319785
736.1413779432232
1031.7594420742334
1408.2893990630262
1823.2127507269424
2230.5031642391746
2586.421122756045
2857.4334732136494
3025.705931509876
3096.201105051826
3089.017710994009
3030.255780540755
2959.7365696243364
2904.4535012023853
2884.438007184549
2907.52503407829
2967.7460589580546
3047.60169835928
3123.4190535888456
3172.2091400967865
3178.1060601719373
3136.661556847379
3055.913236907122
2954.051768372433
2854.42950369762
2779.3356429343
2744.238945036668
2754.011001850531
2802.059755412539
2872.4951584740907
2901.163992313128
2913.587102740903
2847.226771771631
2694.9327052842773
2459.9550414370815
2159.263916509109
1820.731299521529
1480.1936436319445
1173.9497935072493
932.4814326002061
775.1144159294474
705.0766495955702
712.4751094402452
776.0849006221949
869.2140516786947
966.9440208698525
1050.2529572597773
1109.93237661493
1148.2061454624338
1175.887053824049
1208.019112210708
1259.5260926948895
1340.6482133650893
1453.090068015722
1589.7372603223475
1737.1991536035305
1876.6853569126483
1990.5986901614945
2064.2361404890753
2089.0486807726948
2064.397757576238
1997.131147966309
1897.9912088284354
1777.2450964241302
1657.9971904845274
1546.6985764659557
1450.8569276648952
1373.2826723926498
1360.94041268633
1327.281850992288
1319.6135528256336
1338.1298261221127
1382.3391926679442
1451.9271791315036
1545.6130663370318
1659.1404819770862
1786.4150103574998
1919.449844722672
2049.050852297016
2167.4808008027067
2270.1263484989695
2356.555558308806
2428.16533437662
2490.0277642021542
2545.0460994106643
2613.3150998437845
2654.495830699919
2681.023547052616
2684.527103325974
2655.221194748371
2584.9278757067923
2469.803442660873
2313.2353531307385
2125.403804800494
1922.4447821188626
1724.5668959753368
1551.032626075867
1417.7200424683426
1334.1317359746945
1302.6436423162395
1318.4293205446825
1371.728036957805
1450.5882519599397
1542.6653971273547
1640.947104073996
1738.7559647072976
1836.247490503812
1933.488981102634
2031.1347812854858
2128.8206166598316
2223.5998610176957
2310.4359293259663
2384.7489044875615
2440.0373922736967
2473.368009334838
2484.5960538810705
2476.383447067022
2454.9499012552224
2428.281604918161
2404.079779990763
2387.9195033631586
2382.120718623178
2385.7422560276823
2395.1801824170248
2405.507692536914
2412.3256451255975
2413.0472828224433
2407.519251062554
2398.448807508512
2390.2084140283205
2387.7462388370764
2395.5197301611065
2415.4558671584823
2447.550441676587
2488.914153467151
2535.008247251771
2574.5459076342204
2592.179193907422
2585.2948357218183
2537.8066753849416
2450.653527158974
2326.0560556775536
2172.050967784726
1999.7762504243576
1823.6269839572647
1659.6749326657905
1521.831256137704
1420.158022625056
1358.0120283813937
1332.1173950857333
1335.6389909583356
1347.8620296011668
1379.8368028916375
1413.6754168237303
1446.2290986727203
1478.1754731683268
1512.7529906577706
1555.1871110862965
1608.3624021103637
1671.5438850886624
1740.5291617938067
1806.963127559005
1859.697037343116
1889.0641196894628
1888.6768432994
1857.2916738817844
1800.0412007359132
1727.7813667757423
1653.4871679480993
1591.5743868616225
1553.5176421937886
1546.1675610777593
1569.7303150396729
1619.5411464659435
1685.7448059165627
1755.8046611430593
1817.9190464316735
1862.4660688000372
1884.5608856932045
1882.1226035609552
1858.2679449833413
1817.9244930231089
1766.911883291147
1711.6357005990242
1657.2403785036404
1606.7727798100163
1562.619503963417
1525.081890004158
1493.9532936416426
1470.0046148395713
1453.6675267958133
1446.725504487794
1451.051154287148
1468.2802132144027
1499.1136764626417
1542.8338964664638
1596.2285282620278
1655.3323092616035
1712.9797843219624
1762.7811003763807
1798.03850567055
1813.1216519487411
1806.1252532283822
1777.0198691200433
1729.247580487367
1668.9298299567104
1604.676189915273
1544.9030184567046
1498.8139435775183
1475.297536754094
1480.2445552022677
1518.6139435327198
1592.0242823906767
1698.2681028014522
1831.9433304924885
1985.2755611019547
2147.203970004188
2306.1023703093765
2450.3102520685616
2569.288816183899
2655.5755308944217
2705.220699995548
2719.096555890603
2702.264954761946
2663.4598070307766
2612.9612243490133
2561.7552626514653
2518.3067958895335
2457.142680897666
2413.221153818833
2349.2103393223583
2260.8418874688205
2143.1676659892155
1994.481069729593
1819.4055023458432
1630.4170096455744
1445.560214079227
1286.0436238005316
1170.6270518225642
1115.2612875726181
1117.0152612749919
1172.2720465206467
1265.9037544571488
1377.2993508564105
1508.7680307939686
1597.590492497656
1657.6378503209576
1686.612259249345
1689.3780477194643
1676.4769356627949
1660.9449698955282
1653.5056527441757
1662.8966838926299
1691.8801486769719
1738.4972414514964
1797.0811787796715
1860.272392846607
1893.586269936355
1945.5442790832512
1988.1888376987008
2022.8332649351073
2052.218718714793
2081.4988206682356
2114.1534480415685
2152.812867556954
2197.936878728513
2248.0426883369223
2299.8503411716183
2349.090080836301
2392.29684203484
2426.151901820818
2449.2006906840043
2461.438060122095
2465.0475819824146
2463.1650673276854
2459.8955859262587
2458.0206243843236
2461.2792202190053
2469.260393512651
2481.1914543411995
2493.9149029078208
2501.972289077809
2502.765644304017
2492.886883171214
2472.756039770754
2445.912936328671
2419.406713425547
2402.654704755711
2402.210248572771
2426.8941921653777
2478.7794516400413
2555.2083353809417
2649.0642721928743
2748.3759714559465
2838.163360212116
2900.3291894162803
2895.740398733637
2832.0477736509624
2679.469277058427
2448.5745916114884
2156.790915578151
1828.4672691001147
1495.2041141722586
1190.2999028329966
945.7958512816056
784.7584030599962
718.3189660553642
741.7361425356953
837.3303746151512
976.3181741752114
1126.6932881842645
1258.9338083148311
1352.1041274136437
1397.4418999929424
1398.7885223979938
1370.1186160425018
1330.4696844120153
1298.9549893759888
1289.9842218693827
1309.5129622886632
1354.0023137165622
1413.3149421584703
1472.1370930961964
1516.1894766456458
1533.9103639927512
1521.4111916976435
1480.5217184108772
1421.6299857087815
1355.579827298216
1295.5573514038233
1251.7336557923463
1228.5272488598723
1226.0247376274388
1239.830141457798
1262.0441228439822
1284.9970787322632
1302.2989237388342
1311.014259988271
1311.70773850796
1308.107731073376
1389.8915363017068
1392.5908234774097
1402.796495658033
1419.2170272981782
