0,1,2,3,4,5,6,7,8,9,10,11,12,13,14,15,16,17,18,19,20,21,22,23,24,25,26,27,28,29,30,31,32,33,34,35,36,37,38,39,40,41,42,43
1374.4444384250662,3286.2161677235463,3256.6580743660707,3147.852248359676,2729.883487903711,3620.9862769768015,1006.5998292339946,2951.3206070486294,2671.4197838911505,2314.779441653882,2356.569123762301,2955.364789356905,1376.7208759040795,3039.3568679589744,4162.1074404575465,2933.8294012966444,2419.935100033056,1759.8928194165358,1788.1259456783202,1050.463357596146,2933.573161641816,632.4725293142644,1736.1414875364917,2648.304981330157,1755.1433184220073,3095.7113707611743,963.7779377966074,1428.490873019167,1034.5682339041932,3866.121392014088,35.19883495868203,3200.804048562132,61.02520728549325,3524.091749571028,3758.975830971384,2745.358804235497,2656.977249302281,3573.457429855255,2967.2571457862687,1610.9465954274287,4196.4442518680335,2427.6596812716466,978.3236934958248,898.2857477677078
1257.2728870181045,3255.063301647366,3316.717557311016,3212.430690391172,2694.5279478430684,3758.301637698763,891.4008873714411,3002.055217147332,2711.18087563412,2269.1455176873324,2371.214708405936,3133.8870764432004,1322.0215852020751,3027.243867238287,4149.86383429577,2908.4593486956264,2428.1054139674543,2175.6682463064208,1786.726592586055,991.8588421587352,3082.580656170885,636.8154413025818,1657.6060951664915,2612.4555778604085,1739.1844702235203,3023.9577365262617,1016.4669009992568,1499.048264484814,1004.9457707878184,3845.595985377542,86.69184192972102,3001.655153342605,59.535524987161125,3603.683064897477,3845.966369954892,2650.446280946948,2641.006958483364,3586.397940232661,3029.988106938642,1683.3443857851769,4228.254738165075,2506.578432269279,898.6897216863067,882.0418547268284
1134.2235029377318,3236.3183183546107,3368.48490471319,3280.378326229455,2641.3889562758845,3909.397736746916,795.6651970308537,3057.2675747396297,2752.831271328586,2268.265476466909,2363.760282192264,3278.305768034923,1275.1060065412928,2992.493855687246,4088.6028256300488,2887.24198093238,2444.1165064643765,2515.589367633469,1784.352519728093,915.320374517009,3226.415685322283,613.3906337880558,1589.938289595991,2585.691423765202,1694.4509642029618,2951.19449087677,1049.1879164091636,1555.936570682903,974.0710962707906,3800.431636225952,172.37356499059524,2809.710957625138,64.93464389932933,3702.2279521595447,3928.579816867501,2573.418455788673,2631.377503308378,3600.871673383112,3099.508640357155,1732.4178370083966,4243.791692441947,2566.183289189037,804.1534129771676,863.4466678815459
1014.8008915519974,3234.0761674699024,3403.5699723778152,3349.325342904919,2568.648573936049,4054.288609642007,731.8023560834899,3117.125121147973,2796.401567953567,2301.328694527217,2336.4422898712646,3379.477619071869,1255.3933133653966,2932.3415678823844,3973.917095107549,2884.146077996332,2475.522065000569,2738.892391379525,1781.0637160527983,824.3916031353547,3357.5848434908885,558.6423756151307,1528.4708661836394,2565.5131014727285,1632.7935798513531,2900.437353283471,1051.1781047192458,1590.5528924474725,941.4860567527004,3717.926941115265,295.2929090731764,2630.2465703952385,105.24520563123065,3811.5366248388937,4000.675860237533,2504.1803473406867,2625.936127967532,3616.8938909658327,3175.249510187363,1846.3979850402893,4245.620051429158,2608.2293966654465,715.6248851424803,844.0441545970059
908.6237773889476,3246.9693060445315,3418.317664385509,3414.518833405368,2480.108153347,4174.696366837316,707.6946705629596,3181.52682374078,2841.938742376568,2354.749477667947,2293.272195383276,3432.3054053238657,1276.7450728917725,2847.052026552132,3811.144082759751,2915.605404213354,2470.064007162157,2837.7353995952244,1779.1435261884003,729.7085522503482,3474.1903613939244,480.9103928823131,1468.8999402579648,2550.0653625546565,1562.785622712634,2882.132146945873,1015.1181711615122,1601.224706217349,906.9104438550316,3594.419055571887,453.04465315433777,2465.3959707446656,235.1490628754728,3917.910153086452,4057.3091555085175,2431.7965994740475,2622.664706193966,3634.646385907195,3254.328928787014,1973.4151257436577,4233.6236244077645,2638.669872979239,654.1275796121868,824.5121102571823
822.5923068655743,3267.567148470848,3414.6259879881723,3470.287002894973,2384.4040160237646,4171.759286989782,725.7875885243502,3250.039542350168,2889.9386729323487,2415.7527074353343,2238.2966072732065,3438.092889400457,1343.8570878634882,2740.33379685912,3613.576965496301,2995.278699904763,2542.347902674198,2831.666892824819,1781.9401789410404,645.2632520509683,3578.527116068932,397.0460435708969,1408.9605781432065,2538.9020511536137,1488.970428858774,2880.678055193671,941.9545000847156,1593.6485100214609,870.2973160565273,3438.408460454487,636.9353787856123,2315.701527218448,503.2049727370559,4007.1942120788926,4096.344498223363,2348.541576795244,2620.208767179852,3654.3123453380736,3324.78538234906,2105.6159960947607,4201.925524858121,2664.8200761412195,634.4665739389202,804.8963854963324
759.7920233907446,3283.6235663059924,3397.886585487063,3511.6404680532823,2292.316651997151,4216.616672104803,784.0871654470832,3321.954578318382,2942.3608895862853,2475.344942116566,2174.0415121543183,3404.5077229991493,1452.2658874148074,2618.3037811019376,3397.1013270566973,3127.626818020492,2629.1352216065907,2756.2067062608817,1791.9081233140628,584.5117773850163,3674.310632825324,325.759963233962,1370.0916512332524,2533.1421264894243,1413.5797853935064,2909.3930411372885,842.4352203123253,1577.5945216201642,831.7472469578026,3267.9116388641723,833.321789232232,2182.0086317957894,915.395004008656,4069.4477343180224,4118.839424840056,2251.296906576992,2618.0799778220603,3675.7454995359353,3361.4345501712737,2235.302905640376,4139.981942463361,2691.8169362772373,661.8200404384072,784.8815109782518
719.9770356874797,3280.9647690519496,3374.4187791588656,3535.0617274815177,2213.1916364481986,4228.874515182682,877.9283404064317,3396.109693185247,3002.613831839846,2529.328976324885,2101.0226941831047,3343.490437657701,1590.5969292773534,2487.2711485343693,3174.965736471395,3303.592109045997,2720.523175268963,2650.492180192676,1808.951949664492,557.2524220529608,3763.553851984048,281.3580988063834,1312.3706640964483,2534.4963032573755,1338.740712039408,2928.412116607932,733.5189649562567,1562.812949386575,791.4531838160256,3104.795370024825,1026.2561013376703,2067.461240093684,1429.7217030138304,4101.2487171882685,4128.362174464676,2141.0113090047284,2616.4902955237244,3698.4888464478126,3335.002164716067,2355.2663085555487,4037.581357632698,2720.651547933149,731.6418486725527,763.9422642268091
700.4370461044734,3247.297187961269,3347.8785984136293,3539.7419739636,2151.86651727359,4216.83702887736,1001.3382941026268,3470.1706253377297,3073.470274809339,2577.0387425381987,2018.592817606628,3268.2206911337325,1743.296388709396,2351.43029332595,2955.7751838147324,3501.3533075078853,2807.5694579365763,2547.567053550348,1829.8661991326744,567.8147028222982,3845.0904445653896,270.3455638248868,1254.1823048042902,2543.356710673466,1267.8505293420085,2916.1721911939985,632.4259801272035,1557.1662947981115,749.738033034057,2968.2907611261567,1201.7197673769847,1977.8008481341287,1974.2209921171989,4105.47599702172,4129.742754617149,2020.8276867205504,2615.992034108724,3722.0569609710137,3228.6309335556944,2458.42224130386,3890.4525988783776,2748.812839215353,831.854733141299,741.4784488013086
696.7587541151479,3175.7234816529417,3314.0875467284404,3528.898042125144,2107.441274444948,4184.334313157892,1147.5158547979236,3540.0001662196337,3145.4718358183263,2619.816486317045,1926.302986675844,3190.3089672445985,1893.4935968815,2211.586475272728,2744.663589132828,3692.888135731772,2884.8692373060603,2468.966451419294,1849.5738116357809,615.1795019808533,3915.591399729943,291.2026571674653,1192.924325412212,2557.511515628014,1206.085902990164,2865.807175516897,551.7039562171353,1566.9983076375063,707.5678811172322,2869.731591909926,1353.394377727045,1918.706615940552,2470.536966546152,4089.354563383156,4127.776554709534,1893.903656920692,2617.261325715788,3746.104246273824,3047.1561588163577,2538.286172485401,3703.744272562632,2772.4422782026613,946.7506232452042,717.0066839542922
703.6692165602865,3067.0559833685256,3261.07164441176,3498.8692086121773,2074.337668686819,4125.701636028774,1308.7353215058044,3600.3029346230105,3129.3284734215563,2661.5822778611264,1824.999717704161,3118.010075426502,2026.0655096745604,2065.3317431015034,2545.2119196777817,3852.9774267386783,2951.210962961516,2423.608255070387,1863.755212355734,694.9429433826442,3971.771225900112,336.46518960981257,1124.2044376036088,2572.5316499708074,1160.251496798693,2786.1636799201,496.8809264570887,1597.8084342185546,668.1976369866493,2810.565355875762,1484.8349801490654,1891.579833226249,2855.351136232389,4061.832442279823,4126.25125025751,1762.3057342338525,2621.0358623766606,3770.519073121445,2814.8134401181687,2590.8305758100378,3491.702296251417,2788.4085516726727,1061.6323243604463,690.3274043950842
715.9472325596612,2929.695853871077,3178.916200300168,3505.1641390704085,2044.477570137445,4029.418549146081,1476.8585506294276,3646.4406845737694,3021.895035771631,2709.7006834388985,1717.835129088039,3055.680225649772,2130.054738050745,1908.6583087458364,2360.350165006233,3966.0149053857135,3008.7919896146027,2519.989240995864,1870.955340289784,801.8834091876536,4012.160251507628,395.80502122745634,1044.0094300711198,2583.171219577523,1137.7927155373534,2695.1866501898235,466.716907238429,1653.7898825979728,638.5318832353585,2783.412477352279,1604.1104972006997,1890.648376292517,3094.691180347008,4031.204611242125,4127.4628492390775,1627.5441105242576,2627.934222541812,3795.5347272455647,2565.942995776621,2616.750451776115,3273.5307257273907,2795.451861838228,1166.6537992144897,661.5594806636418
729.1880372037044,2776.3268254558707,3069.364039654403,3291.08691655468,2009.2617986275973,3887.053416986532,1644.6963012286817,3675.6320336498175,2749.814689666839,2772.9983803999103,1611.088839052478,3004.2060892521586,2199.4395651834434,1738.782618142046,2192.071533079245,4028.43048470886,3061.8271792000387,2515.172147100902,1872.7468918057748,931.6063405265982,4037.761986829411,458.98321106675326,952.1310991168184,2584.7702350805043,1145.1633548733053,2598.93109438754,455.32820089211145,1736.2997831671107,627.8384341797989,2774.3969309236045,1716.8392761337686,1903.414385009104,3187.6447912011367,4003.538966962384,4132.204655655001,1492.5215719396974,2638.38550933179,3821.710884077416,2334.169979078848,2622.2660151481537,3068.154538993489,2793.9832378701963,1258.3868848674904,631.0382239584605
740.2646614213481,2619.147755864107,2945.7612715407613,2931.219679266569,1961.475074947199,3699.586524329387,1806.801800205591,3685.665551936907,2375.6689592038565,2858.260750192169,1513.4672703190606,2961.9954891417774,2232.260388896302,1556.9091871614355,2040.1757598084823,4047.104125018764,3115.1372309476915,2522.990560484132,1872.422646864992,1080.6140265041356,4051.682723717444,518.0284952812744,854.3878893865844,2574.450068047733,1186.749624718385,2534.701857276903,454.8962227325224,1842.1212181234,644.4167778782635,2766.228769767525,1824.0511283960925,1914.5959029912128,3160.3004970693178,3982.070199433441,4140.095006547155,1363.3858748940645,2653.0349149677577,3849.741286830476,2144.024309114625,2617.562516321109,2890.44219140551,2784.466777191872,1338.391023598372,599.1274733752339
747.4532990422081,2466.5510443725507,2826.485083532269,2467.4227027702527,1897.2454424918303,3478.406749207428,1959.270583072825,3671.761354082685,2024.289184010424,2966.8600347115416,1433.481347655319,2926.186592513691,2227.2712424120023,1368.76413492339,1900.6409333974016,4035.3659461071375,3173.1433421768133,2533.7676896059247,1873.660897368836,1245.7937558714311,4058.161191303714,568.3134921895751,761.3265177182088,2551.9158275335635,1265.1694952382186,2499.142568069842,456.93636194345504,1958.3980262747368,692.6038722681419,2742.006762966095,1923.4418590631733,1911.4671801918016,3054.0676767579525,3967.424171518167,4150.0649400964285,1249.1033022038887,2672.926206410365,3880.309918846357,2007.022561281696,2613.9557436066166,2749.0346559555537,2765.965894126427,1409.656606348773,566.0530676556859
750.3244909127586,2322.422920647315,2727.9014644968934,1988.0738316386105,1817.135326690114,3242.535852951952,2099.4388859760816,3625.326164606293,1801.6282189633769,3090.439839141402,1376.3366378568032,2893.7856031620504,2178.651411850724,1182.5677773734,1765.2953646906146,4008.389700318973,3239.349197917348,2540.776223401921,1880.1159075384232,1424.7172181256792,4061.472983055629,608.4993694410778,684.1723400327846,2519.2737500257417,1382.1189450425632,2491.4285353869727,451.9372376355075,2081.026757157939,771.3527691847853,2688.711249323152,2010.7944700099133,1887.4635207350968,2913.058172737665,3958.367524582369,4160.842370960872,1158.5537485016314,2698.757377215031,3914.046781051908,1920.5660109233688,2621.202142968267,2645.550146108206,2736.8854658666687,1473.0313614925162,532.7941456948033
749.4141005487202,2187.228379240071,2659.809643910321,1583.5852944656467,1725.6557416146045,3014.189464667328,2225.805293652585,3537.3071064420847,1750.5719263733629,3208.6634774551235,1341.8084913096236,2862.503098478041,2077.2650125250725,1006.8053121067114,1624.190005600425,3979.383034037929,3315.648141776132,2540.9546007143804,1895.2228050631284,1615.8672260064045,4065.0205170699055,639.6918387103024,630.8072600880516,2480.232179583362,1538.1296230597254,2505.544382391798,430.5299138334278,2190.024251959517,927.2891700566308,2599.4621630102147,2081.154081785124,1842.3003234911364,2774.063078616232,3952.741879525338,4170.167372197935,1097.2183927400536,2730.0738680465893,3951.292764950799,1867.672208150734,2645.529337404784,2575.442529517328,2697.395845569647,1525.6151370992052,503.97699276248113
745.7006841234561,2059.9257555593435,2624.154144608815,1314.8991384363535,1629.2984462063669,2813.988527148761,2338.030919129372,3404.1286983533623,1850.703217552416,3294.339566252315,1324.3705815386652,2831.1287896818167,1922.5984387178792,849.3335754351319,1469.9604991524604,3956.406976117704,3401.623555942105,2534.521887789703,1921.1679471480088,1817.0580200296688,4070.244732266236,664.310643374811,603.6484344324854,2439.5939648545345,1730.6972179610589,2533.2002451542976,387.3831714118937,2272.285944231392,1060.8490912746572,2474.507186754423,2130.381744022844,1779.3890778390814,2660.918881791089,3948.303779318799,4171.103294017306,1065.3725557429716,2765.371936584839,3991.7841475843697,1822.664766191147,2688.798785969966,2530.357732455443,2651.358535392954,1561.7119326434308,489.33342091223335
740.1441387356588,1940.2862621403208,2616.3643821370506,1201.5563112566804,1533.9879308117747,2656.481532122436,2436.965607590525,3231.5905131303207,2041.0873143324288,3323.604584601645,1315.9209996137847,2799.4534967279405,1732.0842910663716,716.7775080972399,1302.2100161754065,3938.6698112288254,3495.0047408518853,2523.850314156944,1957.703945993873,2022.8747305443649,4075.055720560016,685.0639935363681,599.7107756956818,2402.606588102016,1952.3072887534368,2566.4027982997704,324.2019609313397,2319.957859990375,1244.4750787116636,2320.9211547701243,2156.8373276663583,1703.0184816430017,2583.4593380332144,3943.3027166906986,4149.01546883212,1058.271754210291,2802.811623614706,4034.8584020526087,1765.1476108869074,2748.847382721156,2501.0997313486605,2606.072006498182,1575.5052111468108,499.782431834564
733.4511423611416,1830.783161382461,2628.05867297582,1226.453031191917,1443.4281679748506,2547.376997252502,2524.5585436882443,3036.832358275965,2249.6176007343065,3284.0778965719564,1309.1318821062096,2767.9579209886924,1536.3649348540157,613.2315741691207,1129.8768726687726,3964.514300241899,3592.6028520579493,2512.126924612337,2001.8378374563767,2223.477287605299,4073.7772488827313,704.2076206141894,612.234345864935,2373.826683025061,2189.8767635682434,2599.1639567792463,248.89365528022245,2331.737980494181,1487.01525577656,2150.7565652158623,2162.4107715117043,1617.2378589517452,2540.034827834133,3936.746241778556,4085.5186493225606,1067.8475214503044,2840.877463695935,4080.087156164618,1690.6736053474551,2820.498129028346,2479.936023900343,2569.689189976616,1564.1791352967764,541.6263048528378
726.7614427092819,1736.983180051932,2649.9543330560577,1349.3034924015246,1359.3084460460204,2484.1055351144987,2603.484214524197,2850.1013859279806,2416.6315062410617,3177.8764223465687,1299.2952436062253,2737.4567682808656,1365.9118200023972,538.9845668516109,969.5843996756072,3920.639419921643,3682.377085604112,2502.280517511966,2126.6467261472503,2405.8724225448696,4060.199213322123,723.1797993241335,633.0085897501706,2356.3126793288952,2425.296795573589,2628.232948300509,172.1279794738648,2311.4785374251337,1772.9379756949002,1977.8825779195715,2152.2784868183253,1526.5664767847384,2521.869267411753,3928.3926068983296,3967.71622719361,1085.0229142527935,2878.7403826616214,4127.54820344462,1609.2426247776546,2897.146172897239,2461.533682960223,2548.3569314870538,1530.00626409075,613.9752771620435
724.3123396051374,1666.1197048512097,2674.213446134401,1521.6814631279835,1282.9540265109522,2459.2536293910125,2676.4369587865576,2706.6184492312814,2506.6721114773004,3019.954114505098,1284.5195291684342,2708.760613232176,1239.6984872562948,490.3422922416202,839.9383492094564,3841.8055477667504,3722.497830209326,2496.344533427646,2171.456348591635,2556.9445616359294,4030.259346576692,742.651578237309,654.563805554832,2351.206597809995,2637.3370541707864,2652.9845600279227,104.01491915022189,2265.8539549218053,2065.8274394367445,1814.5070607502853,2133.343684604386,1437.2755997099764,2517.598137857068,3918.563424536739,3795.3063548136006,1101.770483734908,2916.325182744732,4177.501510845677,1536.7989533500331,2972.939735186559,2442.79676248256,2545.082871079827,1480.302853514978,709.3664355539606
735.8084752186539,1624.892156009358,2695.7543036108964,1699.7263352341624,1216.966174146917,2464.275939250841,2745.4223802704923,2625.1590495162,2509.316463354576,2832.9004299586727,1265.0376691306817,2682.4514419368447,1161.5232231822145,460.7481690238428,754.888011508415,3726.69461588576,3640.8612040281496,2495.23229547651,2204.2799507421714,2666.7817181220084,3980.902118206794,762.698921595689,671.5847590877067,2357.393002208788,2806.030931530632,2674.773659296963,52.13674716724245,2202.94172026157,2324.326158500272,1668.8842927200203,2112.289119705696,1357.4518018928195,2516.9363956209363,3907.881548653013,3581.7949632893697,1112.4139524840311,2954.160793200085,4229.63311425733,1486.9804702558588,3044.5487330326914,2422.076759644124,2559.882796967021,1425.554168535149,816.0772695351272
774.053965713365,1617.935118821559,2712.458914805301,1852.249092786677,1165.7823451116587,2491.0279869294613,2811.494484123573,2594.584534377381,2433.5450496329395,2640.1555283932084,1242.226565769061,2658.842968425386,1123.530414313954,442.5769859971622,719.5825614400724,3583.772408956107,3379.7572924818724,2498.8664430564586,2220.4909446555125,2731.12569794716,3908.194600585545,782.7629344825425,680.585615153657,2371.859766781376,2918.1167245415427,2696.1247465046545,20.601175579242863,2131.640767049427,2516.967649383248,1546.5167344987926,2094.257319275472,1295.096371298965,2512.8999545303286,3897.022575217466,3349.578424966041,1114.0756659853903,2993.2587855246024,4282.0206041736965,1465.4204764934598,3111.2165440093204,2397.667316136376,2590.1313051133056,1376.9386496489717,921.1494917360446
848.6234617527784,1646.1644028177604,2724.6150541220777,1963.15595914032,1134.7542587640148,2531.177000145139,2874.4746681800425,2582.180574528101,2299.700479834949,2460.41968283972,1217.702848956102,2638.0557324654824,1112.8148921759378,428.78663363140936,729.8814327813436,3425.826918718195,2942.001655088201,2506.5532929622923,2219.799812374813,2752.2757370356417,3809.133618722772,801.656113823163,677.6135961999832,2391.0006798452664,2970.4101563535123,2719.8695356634407,9.770893337064535,2061.185342761819,2630.0994559189726,1439.156735020618,2082.344422626508,1255.4140451940625,2502.4342893661355,3885.770634497648,3120.9305302631647,1106.3888190866544,3035.093370512321,4330.65607027449,1467.0543818861793,3173.319521462005,2365.8679198406608,2631.4863514647577,1344.1747475238103,1013.2350729601532
960.9648672532484,1704.2159219571972,2734.009085563428,2029.0824941473631,1127.527916009261,2575.9541681663486,2932.261951141761,2552.459959067439,2131.8900568587333,2305.191705578194,1192.6590315692629,2620.1132701787064,1116.9776079288106,414.0284304742945,774.7247625655955,3264.835973991273,2393.460644650854,2517.4020229205303,2206.680368078812,2738.352162699266,3685.947137565363,817.9516299160928,657.4561353027946,2411.86601081182,2969.7065662228333,2748.2483516347734,16.75729521700987,2000.4579287440229,2668.32244831959,1354.2974129139575,2077.1991255230664,1238.894059055978,2485.8527633079966,3870.144959592121,2911.422932356898,1090.7382807808017,3081.361598850026,4370.399164757105,1477.2600954932514,3230.762130454106,2320.1350822071845,2679.5960741023864,1333.8583460035338,1085.044782474076
1103.555483574804,1779.7994100868536,2742.9695230617867,2054.599525136482,1142.9770849503177,2618.000943566158,2980.888939356458,2482.425758423632,1952.4652657552035,2179.1555284025567,1167.5470290946446,2604.992224443949,1126.977926214644,395.16689048365856,840.355586932938,3109.249607618809,1832.6395895782684,2530.625652609292,2189.5054215319765,2701.4668570142708,3548.0426508841883,830.5598693690097,617.0249369038856,2432.61188885624,2929.8893020713303,2782.3637652203674,36.5753407958141,1957.449773353332,2649.7202574936923,1291.9549215953084,2075.9395103974566,1241.106910012917,2465.665737298285,3879.217945762849,2730.293190354241,1069.3267695654404,3133.4879775757263,4396.8485022343575,1477.3110631423042,3281.195081265415,2252.5417466436784,2731.1149677913954,1348.5612004763923,1134.8260026801963
1261.7155004633732,1857.004162710765,2753.585477098736,2048.10941537848,1174.289513412941,2654.342639475292,3016.050484043473,2367.694685026551,1779.0544411020326,2081.742908637272,1142.164210338122,2592.6031259564006,1137.5313660693205,371.2082051637876,915.247223588044,2963.388133407656,1354.7965810130695,2545.7113947835337,2178.8291058216646,2655.270604681328,3409.067676956315,841.2561449442173,558.9059561280685,2452.4653141271065,2867.741801054818,2822.2892973130693,63.5577657617232,1939.314043483247,2598.7432290242323,1252.3663207392146,2071.555543798232,1172.3788444311235,2445.2017081066715,3832.382650615913,2583.197703109636,1044.2972133645253,3192.294337129675,4407.860712782845,1452.6550180177885,3317.909534196605,2157.140379573718,2783.494144159713,1387.2858484551089,1165.8652197986305
1416.8972789373895,1921.4146333513768,2767.2756972922125,2020.633570892317,1210.9565843855253,2687.764036706519,3035.021964140168,2220.0641304312853,1623.8901442722777,2008.54266585404,1115.9739556773816,2582.7861477979004,1145.5454695835074,342.7847249453664,992.5092709402454,2828.390602357141,1026.2275535701774,2562.8593114874748,2184.191929765009,2611.638045301701,3281.3585928737257,861.6553127675581,490.84370687232376,2471.490901068087,2798.9259693679505,2867.515489191509,92.8245137853537,1952.765886678266,2539.1369348159187,1234.855977863526,2054.9509138314206,1191.0687011066482,2427.415270799579,3771.533660726532,2471.9601665908103,1016.5550177402696,3258.0322187636057,4404.042076479616,1399.819986982377,3330.7688251765985,2033.3218352154595,2835.128035527437,1447.056612017078,1184.1919382787391
1551.202904756855,1964.031964260305,2784.7115516284643,1985.734861943196,1241.9871985406326,2725.27882134798,3037.7769611737085,2061.022970316053,1494.368908612228,1952.6390158309607,1088.4147938185224,2575.36894441852,1147.7792729099983,311.4873665381997,1067.8955950454122,2703.9242648196505,873.5252838342158,2584.2117249045805,2209.679787811026,2577.3719431704976,3171.89445201178,918.2422291143891,422.35063394216513,2490.055041055015,2735.14322447982,2917.317400716949,122.09075532024576,2003.9460840001163,2488.8309534238324,1236.8373176282926,2019.210218314228,1205.5277657040522,2414.256725822976,3707.47810140881,2392.5551599363,983.92808116703,3330.4757727069536,4388.279433645304,1327.5734211585575,3312.291182705308,1886.737408541804,2885.7981737807136,1524.7579786038873,1195.749693067738
1651.2535830848487,1982.5208996405831,2805.902191983246,1957.3819153490745,1258.8040130702875,2775.658602346124,3026.9853975976,1914.9494460191208,1393.6808385977097,1906.46812247799,1059.1250554803182,2570.21978075324,1139.7009874619346,279.1946638592988,1136.9586196149205,2589.1647378512657,885.738908147729,2614.839368130887,2251.216496146522,2553.593725570277,3081.344992700469,1045.6576202301817,361.3482436322463,2508.1728412202265,2682.9721725119416,2970.984798321116,153.67330479331258,2096.677598375228,2457.750488741355,1253.7235560943825,1963.435584354872,1211.4405049635168,2406.592431929385,3647.262891958221,2334.6867505061914,941.3184953097924,3408.928134610023,4364.713271790134,1252.137660346135,3263.7577521434205,1727.267368958333,2935.894173896384,1618.296054310452,1204.1794086959242
1709.4998446934042,1979.8136237442336,2830.3168810624866,1946.5882290998984,1257.0221204279935,2848.2666083527256,3007.1265678833843,1803.0326477244791,1321.2010543095507,1863.6371341478464,1028.0358166077604,2567.265021117877,1116.557801625425,247.4789765943642,1194.8081133572443,2482.4981097234654,1025.4392847945437,2661.2913172272924,2298.170092592138,2538.224942339427,3005.219129234439,1272.714914207315,312.3399536391437,2525.27462520218,2644.273866443096,3028.014359477226,195.0293348244379,2228.8897033839385,2448.206740101414,1279.7205678872238,1893.973418630478,1207.2938772706525,2404.385605052856,3590.413538469065,2284.264809789818,915.749218252276,3492.4531130229843,4337.60780375761,1190.2005258128645,3195.9315499802224,1566.1030927408087,2985.006375237811,1726.2176701744977,1209.8843902883218
1723.6594511752978,1961.48933364411,2857.0806431984965,1959.3351267003573,1236.631697827699,2952.5088700968354,2983.251916108026,1738.633191802236,1273.0425340399363,1818.5686334495765,995.267661453607,2566.487991262248,1075.8280513093987,217.28873471467,1237.5704162112086,2381.1693814257915,1243.914701670837,2727.6221357658715,2338.023094317044,2528.743988966551,2936.23953881924,1611.947126603181,276.1365040884184,2540.4863541722634,2617.501412522019,3088.203744444833,256.07534794374646,2389.096108223103,2456.908508731137,1308.984319989186,1822.6963864181373,1193.792893079099,2406.9682997544232,3531.5199843941205,2227.902638965036,953.0502941286536,3579.140547059132,4310.460882556868,1153.38372824299,3125.109164553184,1413.5582302177663,3031.2829867578835,1846.1785007836093,1210.5432366106645
1695.78740964406,1933.9299432333444,2885.2588415548084,1995.8110473779293,1200.8393081615504,3095.4410468049487,2959.880920838084,1725.28111715851,1242.9259292173028,1763.6084011566222,960.9632709904628,2567.921615083835,1019.1437909235784,188.9404729978146,1263.6037542381732,2281.9785656586987,1494.8833848599286,2811.882071326929,2360.88063469643,2524.230243753151,2867.07534229619,2053.060590609089,250.5986565578141,2552.5553655940143,2599.227417117762,3151.5647002177643,344.4210347164085,2556.48381083322,2477.666373856451,1336.6435671600375,1763.6323416537457,1172.976580664136,2413.3761805231475,3464.8345829764703,2157.2563164034773,1098.8156219599664,3662.030408450436,4285.522987589497,1145.7599686790686,3067.576293939488,1277.5231945044525,3071.9362894355545,1974.14486617313,1202.9114416272446
1631.5705822384425,1903.7368171417284,2914.1284261804885,2050.3545559883014,1154.3559952939054,3276.581470988029,2940.263025121039,1757.020472324481,1222.96837208386,1608.2034211570108,924.9502384830736,2571.6451864047044,952.3600550098886,162.25229880836105,1273.776912796175,2182.6960111019903,1742.6024377596132,2906.1985326290337,2361.8663654543134,2527.5461138316973,2791.8252184538374,2558.9928913645485,232.3922794787195,2559.057279982349,2585.7562350536214,3218.2461702688443,461.7202979993863,2706.2709854100567,2503.9202053039858,1359.427281937681,1729.368545731698,1147.3591380407015,2422.6916572871114,3387.718623859526,2071.310254793233,1363.6635068479468,3724.729767239415,4263.732177838796,1164.3175392616913,3034.6524261948703,1162.7455859299102,3104.834683261196,2105.439694691384,1185.1836915438694
1539.7701130573869,1876.903711805416,2943.3126114299566,2112.673447597716,1101.8576737213812,3482.15791622824,2926.091994949907,1819.74672245799,1204.5896288755907,1514.2577598840726,886.3360475801971,2577.775277179124,884.2574217230592,136.79863774430146,1270.9633696170415,2083.417519175818,1964.172168100616,3000.397969756903,2341.454521075528,2544.9359047052767,2706.2031693043587,3070.998796442847,219.8481602288421,2555.852483717797,2574.7629693421586,3287.53322347624,602.5990547682752,2817.483252217074,2530.481348404336,1375.7816232090186,1727.910262829976,1119.250620786288,2434.272215227419,3301.4126827474083,1975.826804987191,1715.7830900991862,3744.294799846687,4244.961175799812,1201.3169430452276,3029.8399467097897,1071.471286279057,3130.2301173029846,2236.724141398548,1158.437051851684
1431.2638650284998,1857.0945527469755,2972.7747890405794,2170.660238377229,1046.8039464711687,3683.216030374022,2917.6397802803003,1893.8520850717885,1180.2053540572942,1403.7974317996186,844.4900990518186,2586.4714140514884,825.1367594227277,112.39196568328794,1259.150118742356,1989.962934862112,2148.3149186683486,3086.4916064327936,2304.506771555745,2581.015023784053,2608.09718327802,3525.209925826929,215.3517225035808,2537.5529819666635,2566.021282067072,3354.609122557482,755.6316733471497,2878.7507553644173,2554.380336968636,1385.5672650291162,1760.6158120428113,1090.3385091163282,2495.5661709749093,3209.8017577855053,1880.1155083379383,2095.143407670545,3700.985175816817,4228.425158331827,1247.2359247278937,3048.912142455106,1004.9892142629436,3151.160030624883,2367.023630426166,1126.5248484680797
1317.3525011576903,1844.5197330924864,3002.728149777424,2213.8454746520188,990.6592832860372,3841.114581770417,2914.183421216153,1959.232351913523,1145.327720194145,1291.4518268165402,801.375834919555,2597.945907555193,785.3642340260021,89.64938360841325,1242.4613673967558,1920.185292570043,2292.390087427434,3161.483521299981,2258.424021230358,2634.1785866595224,2498.834179895218,3871.5178835893184,225.22163890151447,2499.012106986268,2560.544754290366,3408.77815823707,905.9316596875426,2890.0415610968817,2574.9202364860203,1389.5961520880371,1822.3166222278016,1061.5455115241596,2505.346880409447,3117.6553913914413,1792.632951017258,2435.7207408418885,3586.249146732852,4213.105408626494,1293.3190817722234,3082.534808669008,965.0489678097892,3172.366918613508,2496.9745390725484,1095.1795807774213
1207.9790107602112,1836.7412440144208,3033.484934240172,2236.3626880282595,933.0890409888524,3919.668064259264,2914.556532096084,2001.0607976352128,1099.936963896847,1193.2827810142876,762.2288190328154,2612.3801986697567,772.9330210853841,70.14547542817559,1224.2941676207895,1901.9889158846088,2398.77662206165,3227.632383602942,2210.88500418728,2696.9839353754533,2383.8596534519743,4083.184856676522,257.3703363580403,2437.272240047643,2559.1793973001904,3438.2716276357387,1039.0014292478031,2860.659116611366,2593.118664281574,1389.173535899174,1903.7868249192345,1033.0886623164756,2516.93945550702,3029.251190843139,1717.736216647985,2686.1664850949783,3404.629459109889,4198.085015790995,1333.2456242045928,3119.9512207352627,954.3905973279612,3198.5876534669005,2627.172275004312,1071.0920213150623
1110.7951452292427,1830.808383507644,3065.304607675924,2238.812877653404,873.056390039543,3894.3463392960016,2917.6181867209207,2013.014885837216,1048.3165607783174,1120.959158684958,733.451306394946,2629.781074388424,790.3704367024302,55.8787721714732,1206.7378750561134,1956.0122795586976,2471.827838279342,3291.11633370304,2167.9611699830657,2759.750688843063,2271.5681134149777,4151.1403121006215,318.2058070983257,2352.7526337919016,2561.937362715587,3437.603124977236,1144.7875805496662,2805.051157762954,2610.911207976747,1385.6525443754126,1995.0891008798008,1004.6616066528288,2530.630947395286,2947.655530524804,1654.830205990579,2821.729674145369,3171.340945308363,4182.746582375259,1363.76784791895,3152.216399836308,976.028981753743,3232.4179649737043,2756.1956879177164,1061.197705946558
1031.1299883487054,1824.9957064897808,3098.31715137939,2228.0975014991773,809.7040360962233,3748.856831708808,2922.510271703463,1996.547348844092,997.187623768864,1078.8815797240004,719.8870508910582,2649.9329533694427,833.1228929490037,48.42781410953376,1190.4394330404232,2079.636565138207,2515.8495022871784,3359.3204332983228,2133.206412861423,2814.176402638493,2169.8212674702154,4090.37112419353,410.0001258815412,2248.74387870832,2568.1588693828853,3409.262338916672,1220.5413385261445,2738.434896748323,2630.440674460865,1380.0494608472764,2088.6071865282083,975.6706437884508,2546.777390003793,2874.542686583068,1599.8329890128448,2845.50705097355,2907.4324169746096,4165.955962233763,1384.4210630923496,3174.066181772489,1031.6977411547791,3272.1069630573547,2878.989910730664,1071.7883154030071
972.5439694082654,1819.168638079412,3132.529647307106,2214.498026629941,742.8125130680551,3472.3554360224243,2928.7383625419234,1957.637859512909,952.8570414355328,1064.3554295839897,723.5014304018359,2672.472345233474,891.257604733519,48.347040867158285,1174.938767049836,2247.745642289442,2533.8010916837857,3436.4534744695084,2107.8278872427404,2855.524095410641,2081.484203464523,3906.664783342268,530.0989444625502,2129.605397906311,2576.9438638494607,3359.646780988013,1271.5799253579903,2673.608624379328,2653.553002212344,1372.8535361616682,2181.4861467487885,945.454573577598,2565.595522190994,2810.274448265556,1548.0328441493994,2781.588056640026,2634.365169732177,4142.315012536662,1396.667913049636,3184.259685732217,1120.306605239066,3311.2710702690165,2987.5155558186,1107.2482688689356
937.9308016944542,1814.2129593291288,3167.8721189622806,2207.3773289908127,673.996802738711,3072.7026615821737,2936.149774841556,1903.507782713844,918.7198384285196,1069.7671939355005,743.6644241855472,2697.0200273898404,954.033668848861,55.0306777607384,1159.2418071972884,2424.9185243676875,2526.6585271510257,3520.3251405675323,2091.4005608501725,2883.2028636305427,2002.0329881561136,3622.534503734722,672.0832893711679,1999.342043621829,2587.449566781353,3294.8640908489906,1309.9290608229503,2619.204054590154,2681.51746549135,1364.058205785464,2276.6239711471026,913.4615377180256,2587.0821956666423,2754.120052375496,1496.5388796701154,2664.451419370135,2370.3561036024166,4097.175556423236,1402.8996673067695,3184.7963084509265,1236.8498237362924,3342.492377105044,3073.951618543273,1169.0744449070162
984.5422926763064,1811.284535907318,3196.807504385764,2212.37632993401,608.6189351212149,2588.746031072786,2944.84612879969,1840.478436319021,894.385537219579,1085.4912683109296,778.015335054801,2723.329168324276,1032.7128330796688,66.97577234604,1142.3221258637843,2578.520886362894,2493.338842321348,3603.2594999346034,2082.4681748583284,2900.092908135215,1921.7566438691863,3269.263754497875,827.3185210228123,1862.0499204204432,2599.056825036578,3219.297082200451,1351.4163273361464,2579.22966583115,2714.9518560179927,1353.3369237731122,2380.637494367348,879.3857207332123,2611.095465274878,2704.6511909117366,1444.8824510608165,2528.6645088172054,2129.2476225086875,4007.588172931595,1405.5532542395815,3179.53059098903,1372.1125504299566,3363.559888930186,3134.230677433967,1255.628137679786
1008.7440923913372,1811.033800221809,3184.9589350653,2231.380619854473,555.3928137268679,2082.7566551289715,2955.0824409147976,1772.6791989154408,876.7404166843723,1102.5456129494205,823.4326955031418,2751.391439367431,1117.719314466539,82.252967742073,1123.4023582510326,2687.451085340876,2431.026833324147,3675.920781953675,2078.990677988289,2911.0161558433374,1678.1680319758127,2882.899931174211,985.9300239506348,1723.840865278239,2611.5206472239606,3136.584201189853,1411.4562169733126,2553.6695513380823,2753.888889417519,1340.288554925871,2499.018530786288,843.23738730216,2637.453865585224,2660.2269242742404,1394.0274314306985,2401.443623081621,1920.906253534926,3852.249009792084,1406.4508282584486,3172.688600080307,1513.6085425285478,3381.695999343227,3169.166693904825,1362.5641516677483
1067.7602205511052,1812.76007579622,3070.395672467898,2263.7641617215577,521.9659060617944,1620.12327203344,2967.166245054733,1701.51785764535,861.8288938507758,1114.355404649304,877.168867459392,2781.466601273968,1266.7366288692497,99.27913512950704,1102.049918992917,2745.139599909019,2336.661753338566,3731.1015622717546,2078.822695610392,2920.974908650021,1577.986415414782,2499.613195177148,1137.514291342737,1593.9394368116848,2625.05310829068,3050.319176807641,1499.9875115633542,2539.744152741217,2797.9300710856583,1324.6149783147416,2631.955439635638,805.3058420786826,2665.952242041775,2619.3817534210734,1345.3710240368268,2299.066679033334,1752.0095698517136,3623.469347152906,1406.4566474369967,3167.765393741872,1647.7172794237683,3411.041943979222,3182.0200749555925,1483.7935833428546
1155.5478081397794,1814.0278039137856,2804.7310682216576,2306.966880632154,510.2084227411883,1250.268294626156,2981.3572037752983,1625.9643683328627,846.2842401931762,1117.4061302178052,937.4314160606524,2814.030446236346,1511.6086516550806,119.07336644507429,1078.171754327651,2757.6552977257206,2210.2564207819405,3765.840929967361,2080.186397080477,2933.9117331523385,1474.6518163463645,2151.977209181839,1272.161010082721,1482.968088005378,2640.227189106544,2961.4034668757067,1617.8873123880348,2559.5308104150768,2846.528126427548,1306.1118578603314,2774.115778410124,766.0006519433746,2696.354981596278,2581.0444452203174,1300.7194639374002,2226.867375114137,1626.6717259196523,3332.617327057442,1405.5522881371162,3166.997348284762,1762.186262358984,3463.2625278821142,3175.0618660671607,1612.7386598840535
1256.0044984220783,1811.5032682395613,2394.1879824512,2356.468083005328,515.2551775704546,996.5497785629886,2997.8165803724296,1543.3347034313513,828.0060045636919,1110.9863368426566,1002.8652735190346,2848.819641445664,1845.9270577325208,149.54405336311606,1051.950415529045,2738.924477680128,2058.3944712819634,3781.4008824295584,2082.044133891671,2952.227985192976,1380.596705652772,1865.3074824835585,1381.974869718575,1399.2177481948877,2657.722346253511,2712.883095324367,1757.197459611555,2553.8230474044058,2899.3127926479883,1284.5817387661268,2917.7712773246853,725.6629999617769,2728.4734299371344,2544.62806490038,1262.3609726251775,2290.8798820488573,1546.8515471093624,3007.290078749645,1403.2204537953994,3171.2791262965384,1847.7540732411103,3537.8725808589697,3148.543855322757,1743.7236887244885
1348.7968994553964,1802.7356400210228,1898.8116055387488,2406.461365874045,527.9518501374987,856.3903953645213,3017.6095991930097,1450.524097358228,806.2243095186357,1096.394849982005,1071.754870706496,2882.283973763408,2226.476182206755,207.83685404021685,1023.784373936916,2705.3142545063665,1894.5543938929136,3776.609175903725,2084.2140388361663,2976.855169860516,1307.783994572139,1654.0370215237083,1462.184565514439,1345.4568830351354,2678.077673703602,2604.467803009966,1904.725316803803,2553.42189467602,2956.174720876544,1259.8652827958776,3056.2519609119445,684.486192402532,2762.267872030612,2510.008540384192,1232.355177590291,2262.968589021976,1512.7383070912404,2683.8990957057645,1398.8433203768718,3180.419915372329,1898.7473231745764,3619.7820227715138,3102.0323324515034,1873.1770338334888
1417.041655546102,1787.2197366909206,1403.0598949607422,2451.408240061719,538.6182707571043,808.0668701233062,3045.432683555172,1345.368584735916,781.1619217262753,1075.983214657073,1141.983692629388,2906.4282207612814,2594.9002837888665,315.62628010625804,994.233768882177,2671.231826271366,1735.0642434539866,3733.2994591864135,2087.178981227141,3007.706084244105,1263.3363742643944,1520.6023799533014,1511.0322858783188,1317.7432472429218,2701.6004924341746,2480.270446401725,2046.758323724813,2559.321990571277,3018.4015261188165,1231.9489175558365,3185.532268580296,642.5074668501898,2797.862144101492,2477.3632553900256,1211.8565052565066,2243.7950402570336,1523.119691016599,2399.321443316082,1391.9603828785876,3193.646004991319,1913.4663317056545,3684.9080067966897,3036.332104978532,2000.0359203916728
1451.443923299422,1765.531725271809,985.5538697001962,2487.493011116942,540.6084488968634,820.0548964889836,2991.982432747336,1227.3916215594463,753.585285981469,1052.2850672575642,1211.363169679869,2912.237612880313,2900.303023957754,489.0633813503548,964.3626720942424,2646.516801826204,1593.6762629770424,3615.408260339346,2091.7969374441063,3044.226320013675,1247.850227245126,1458.0095611251531,1529.9306710138687,1306.4383621761492,2728.439899363367,2340.422724001736,2172.7279528192307,2571.8162793735382,3091.702018746935,1200.988416166283,3303.502030801243,599.6314535090737,2835.49848023147,2446.943076242492,1201.14917984377,2225.337378504344,1476.7665095548869,2183.3147911534666,1382.381204537745,3210.042902916267,1894.373179600295,3709.498673685857,2954.890702055872,2124.827241926971
1450.554654199706,1737.676589041805,699.9170173128666,2513.347931456481,532.519765280445,860.02090636085,3054.713402674002,1098.084669182787,724.4015865291635,1027.3442598237723,1277.388776900734,2894.7366371639555,3113.593168004889,730.2404463248938,937.3941170808008,2635.694783636576,1478.4252004743655,3396.3733661622746,2099.018986669482,3085.71751622838,1256.235792465823,1453.63738275795,1525.2593124208397,1299.2699622706327,2758.6708468522606,2187.423167986375,2276.6828914189905,2589.9464526849915,3185.348767084236,1167.282165920285,3408.228934598831,555.8869979981871,2875.4581651966264,2418.9372645970298,1199.635353123453,2202.815010444492,1562.5780208358226,2053.042441256464,1370.1613659030045,3228.7372649818244,1847.3212631266383,3678.5521958024656,2864.086106056036,2247.259502303652
1419.5108706746737,1702.435342979073,566.8684132469298,2530.0125287939923,518.4536893231416,901.539698070026,3141.4073377498166,961.3097005395824,694.5575683785053,1002.340972705132,1337.0822757045569,2855.269567552009,3231.326553047184,1024.421499389044,920.6636828285344,2638.7102449659,1391.2387608156127,3086.1221276514025,2109.604156935299,3131.436432279219,1280.028515538179,1491.997454675267,1509.4782805209595,1285.4636480688202,2792.342506192383,2025.284785049996,2356.740830084509,2611.9796470885217,3303.881463284258,1131.2869112236642,3497.2239350826467,512.133529381201,2917.9629355398924,2393.4078333868406,1205.306588826881,2174.786957966122,1675.478842244806,2010.6113564857608,1355.7443020479282,3248.971779078287,1779.6232871554453,3590.3049994996786,2772.316555261884,2363.586080847944
1368.8079275667665,1657.6699480413006,575.0673533779584,2540.234079632776,506.4278866294012,927.5970927493534,3244.337402761962,823.3454396357579,665.529759994203,977.5647686616304,1388.1268149494713,2800.668505554514,3270.7149233564387,1342.8460124716028,924.6716997473115,2652.5251393672147,1328.806053894555,2729.4742778553564,2123.956989873293,3180.665070125874,1310.0226425246794,1556.8713828384646,1498.6985231921324,1258.960046816001,2830.8196498158336,1859.212531313501,2413.74491791994,2636.083617446489,3440.321489899962,1093.600943212425,3568.267662110343,470.7591064399387,2963.204671276837,2370.1953363684465,1214.297680844817,2142.3086416796104,1804.1669308709209,2043.508927020761,1340.4330007349845,3270.2256533678947,1698.0521718733876,3456.167092708688,2688.478445348748,2466.218781629427
1312.418240087895,1600.9133709257878,689.4459179764019,2547.3908603212667,505.4323011002057,930.94670899175,3352.266054287937,691.7791908972074,639.6776279563476,952.6497335731248,1430.9067212023317,2740.663059337898,3259.353012309977,1649.61956111797,958.7167315570924,2672.869241573844,1283.9797026228457,2384.523503083888,2142.180851180902,3232.8176013532184,1338.3843310641064,1633.576725897562,1507.7806552923175,1219.118513673278,2879.947326456824,1695.4768917775175,2450.5436410959787,2660.8776452644497,3578.363632116918,1054.8153283571116,3620.697759062928,435.2902921529251,3011.4848676882348,2349.0170609439074,1221.1132353577725,2107.77346227244,1937.929830873848,2127.5672926361704,1325.9172216459028,3292.3438437742343,1607.8485885485115,3297.236903282851,2620.799080923705,2546.3404402728925
1264.3251910654992,1530.4158640228943,864.1491264435422,2554.534816016966,522.0874498955118,912.1984265687807,3455.026731845556,573.55147013902,619.2730888185652,926.92305380063,1470.0685363064774,2684.709232039384,3224.002967678161,1910.886130470421,1026.6251469015588,2695.6084666643146,1248.0150986393842,2100.027887669289,2164.2332271368964,3287.5764391895987,1359.8241747333675,1710.908155733881,1546.071978326754,1169.4140104612306,2949.9360002990347,1540.967238594285,2471.9918669109825,2685.769221945692,3699.7140679545337,1015.3583262109194,3656.07007844484,408.8667656884313,3063.115524646759,2329.828039530304,1219.7262685722235,2073.8580940758143,2069.551822418392,2231.4497066195763,1312.242101210046,3315.5720127665886,1512.5299547331028,3138.5049911366787,2576.1738954271805,2597.53847528622
1234.5857798683542,1446.4396471054936,1054.6354324897377,2563.8700206298254,558.2458855749751,876.8597273263706,3546.580107834194,473.27816023634455,604.6186026431503,899.6954242937925,1514.2025857637618,2639.3679056997075,3183.6079149697243,2103.2091556939995,1125.587908120454,2717.599088691928,1213.4697296755664,1901.5937909719937,2190.008796538714,3345.044919687921,1371.866249764247,1782.1549351611366,1615.4640989686918,1115.9112723268918,3080.381893197705,1402.1124765064314,2484.59702349533,2710.962080015476,3790.6985939612414,975.7533284489696,3677.9234676869855,392.8725847640676,3117.982768645679,2312.941292154984,1205.2491213607802,2042.7900771803008,2196.512735645448,2321.3955039317248,1296.8206974934665,3340.4319334571783,1414.109368764383,3002.22530886334,2559.3283559792,2618.203473490539
1227.120586285027,1351.8720613647745,1225.1365206037142,2576.640408920867,610.472969506742,832.3372946710451,3625.7817424166687,392.808952561956,593.2296096304938,870.4073811596111,1573.2715951104042,2607.2291241182693,3149.194421157837,2218.3033730905054,1248.1514320777335,2737.12598488807,1176.3482111053731,1788.786153638343,2219.352457445159,3405.800180771909,1374.4576752161793,1845.0095537313573,1710.832888884143,1065.8248257177893,3180.891729133265,1283.560695010518,2495.2800009231923,2737.127738985083,3845.6961431124864,937.1314294551444,3690.917068428036,386.66082731644497,3175.490535656108,2298.744657037577,1175.4801567000077,2015.9816158052167,2320.1054244748184,2365.810285554722,1276.2006623618536,3367.50524503595,1313.9009273198803,2903.0192700771736,2572.106534772516,2611.89067398509
1240.5108230653807,1251.9070061369534,1352.221616568574,2593.279651534459,671.5314334422037,785.529846221064,3695.282805064943,331.93269926070207,581.4612954589657,838.6744869251118,1655.6114252889574,2587.724954612276,3126.813397890397,2263.0873233094308,1385.5460930484278,2753.9856940863965,1136.3287524786945,1740.994817172189,2252.0804537658705,3470.346409963611,1369.1657525028156,1900.4448905966176,1822.1690390709284,1025.3436927729035,3237.944690067221,1187.3699628276104,2509.707189664912,2765.025573883805,3867.20613079177,900.7685631580669,3699.770956586581,388.354801641583,3234.90738787942,2287.450981968969,1131.7130350247337,1993.966937800832,2443.277813881385,2339.4023809916507,1248.404960175355,3397.266389438744,1214.0873834272234,2846.385373860774,2613.639534843866,2586.0176254981407
1271.091340528894,1153.2248342422288,1426.161605899747,2613.681914070324,733.467402679948,741.3651979676483,3759.660152761903,289.1877237826186,567.5971644348606,804.2749340223863,1766.6128270423062,2578.764383669993,3109.6413127766705,2255.5765446042005,1530.0251857950634,2769.182379334617,1095.418430867885,1727.898142159975,2287.9834810586403,3537.2655649891826,1358.2557679640674,1950.952952978211,1937.469859886886,997.2322702144552,3206.881337928585,1113.2315821422997,2530.9562176282416,2795.341413190271,3863.556382652337,866.7457383889312,3708.37827413945,396.12273036272927,3294.7312663288367,2279.051849333201,1078.3797124684038,1976.532489746729,2568.1815020439863,2226.7247338331213,1213.6595426371955,3430.01389942623,1118.9746397830309,2830.042597561979,2681.197022708705,2549.695568432081
1317.314246577254,1062.8404855714648,1449.8129726575376,2637.48943711929,790.9892845959964,702.2980380285776,3823.713711325777,262.1882338252374,553.9938979022904,767.1625772102659,1908.8704713430848,2577.896746332489,3114.0353325421,2218.4326110305365,1675.111184685352,2784.3530159931347,1056.169996151159,1719.9871779937043,2326.840624932059,3601.144991258792,1343.9452076114271,1998.9383297084075,2045.768013797876,978.1953903525392,3074.354160254329,1059.533491890587,2559.2402480403707,2828.709877332464,3845.497516690718,833.8611405310019,3719.2959591941353,408.9956814300056,3353.2724651178496,2273.3508436882903,1021.5239090735008,1962.999954452045,2694.99014839594,2025.6916530980363,1173.6966593249228,3465.145172299504,1032.812185592234,2846.6531721042747,2771.4545959600923,2511.497079707534
1384.0278252907042,986.628835842434,1434.8950092094092,2664.306143153812,842.9398603950369,668.5250820680021,3891.164845874097,247.7558396598356,546.653939135304,727.5419370878328,2082.357133048092,2582.879509024072,3119.6832173261605,2172.7392990528147,1814.9244091993464,2801.2251756328023,1020.362065369582,1696.009654475963,2368.491676298534,3653.028716335104,1327.7825600539816,2045.91461452,2139.664133601509,956.1495307174836,2862.5547560146606,1024.5484560752127,2592.9548711419498,2865.771959076601,3822.13566744755,801.2502070244414,3733.6521695743145,426.47978830178295,3413.5779041064234,2270.051610691903,966.7864634196088,1952.7017550893,2823.3843870970386,1750.8676964581878,1130.6541633280617,3498.9176083274406,954.370212191728,2886.7504177727174,2881.5636868142446,2477.8481110879115
1509.1619097369528,928.0458329868312,1397.189031456534,2693.7974456655224,891.1031257903326,638.6240676891355,3963.376904082117,242.19874858672165,552.1490803735646,685.8611451476049,2283.305953159287,2591.976722013536,3115.843580225573,2134.049192051869,1944.2492047624803,2821.186947385102,988.479331454006,1646.0382782935826,2412.9529401427385,3683.6971806226647,1309.9970101598915,2092.498931240687,2216.414953961824,913.5342506761322,2614.5927531291427,1007.1207581119904,2630.010007113471,2907.156634418425,3796.201657770651,769.6870345497082,3751.383948090197,447.1592406575137,3486.1276151687152,2268.8665603198283,918.0956929832124,1945.366983089696,2955.6835127201143,1433.9617408538652,1086.2475684007472,3523.1285808682705,877.1219681181951,2941.1091544632427,3008.6964251969803,2452.397342424032
1640.353887679177,887.5615979073661,1352.487558469879,2725.5977236820804,938.0674641878624,610.3541047032893,4038.240917089859,241.76743460449097,573.8212614115864,642.6605590499566,2501.1719838716226,2604.0426267878643,3094.8951650328027,2111.2990753876684,2059.399043253112,2844.9476740214423,959.612790947069,1570.5917118805,2460.563922590828,3687.2208841605807,1289.4439557120318,2138.8760476842926,2277.37136868782,839.0859438188506,2376.7611445485204,1006.5000735124544,2667.998055211833,2955.700915444009,3760.5766559763993,741.2033833439384,3771.657646624744,467.6568756709792,3582.4024406209573,2269.5772223405106,877.723830364919,1941.3478460396311,3097.8303305318486,1118.1202473131264,1041.4601430461112,3528.301705169659,798.8594936197846,3002.384259687904,3148.3477839312523,2436.216482698704
1796.7299981811875,862.3873597242857,1313.647079631963,2758.9267717586167,986.0670131544272,581.4416664397188,4110.374845511778,243.12318381420985,610.176853156687,598.4090611747001,2716.6530395866944,2618.417595443214,3056.2142097601964,2107.7383241635525,2158.8960459037507,2872.5713799301866,931.3207628211512,1477.5481551410965,2512.0034437107224,3662.8029669816783,1264.627884801992,2185.213531936706,2326.548911912312,736.7827689600356,2185.4070221441693,1021.246905631016,2703.5917196404907,3022.204667273588,3699.721944241576,717.5580741778597,3793.321903228793,483.25919402288105,3705.5584291596297,2272.051848719596,847.0570564282045,1942.1260612161416,3255.341601994506,846.4384543360295,996.6271065939328,3509.768865785032,729.00142960931,3066.574668915352,3293.621521438386,2428.449362201345
1958.8547192259184,846.4632579535253,1288.4575788628072,2792.45755097607,1037.0925470790048,550.2346966383532,4173.088137814532,243.67723705185065,656.2550492551636,553.4439988033282,2905.231688426399,2634.778089231557,3007.248392569939,2122.345857869901,2243.32774498992,2903.8965039778145,900.1366923284425,1378.5342390197156,2567.910261618382,3614.65507351861,1234.8590110799703,2231.70384825347,2368.913701978838,623.7012244901232,2060.253860080466,1047.7994645164729,2732.7637857973045,3124.716416143352,3596.932492181114,698.9662929487054,3815.279822700968,490.0083778202327,3846.965124597202,2276.2357753136107,827.2610037409609,1950.235953110296,3426.706479955424,650.1038876195275,951.618362963112,3471.98975296343,685.1233232127042,3134.408988485528,3436.664465554052,2427.1137010728808
2105.462297954597,831.8019393418422,1279.0333924230567,2824.7382355495383,1093.2447398574814,516.0714821938811,4220.932529036482,241.7725115766584,706.0384327834822,507.9845376837959,3045.114396441248,2653.0247750114586,2960.459034522636,2150.855517090202,2314.4203414162976,2937.7723708037506,863.2459397235125,1285.8956055363092,2628.367644682973,3551.022108007692,1200.6106223840636,2278.6030826596634,2408.5182845131194,521.9005646189851,2003.603753519468,1080.0724499981266,2752.046342180279,3274.622449018862,3443.392553066602,684.0526455275271,3836.720939801461,486.853587970026,3989.610022327309,2282.1012605195306,819.8312784503453,1967.6070251032577,3600.115833171349,541.6083530609988,906.0218387221396,3428.5853766519776,684.473416143622,3210.351009361912,3570.294678744416,2429.9018570849166
2221.225682144877,811.2703499180898,1283.0844071536426,2854.241938958281,1156.4651275150095,479.24744386658654,4251.429468536486,236.6871979944124,754.0639199701243,462.5329375570193,3124.182852964339,2673.1824123457027,2926.872335303108,2186.8263269313443,2373.9820568794585,2968.868857760641,819.9613915374784,1210.4977814799863,2693.2090005752266,3483.26188240589,1163.232432131405,2326.48431958023,2446.81697311013,451.1351603717385,2004.14757309841,1110.6166046779094,2759.743477481451,3464.1966720903006,3243.703740709654,670.9981235592948,3857.2053005341095,476.7693842145086,4114.945267816158,2289.640930571162,827.0171765117375,1993.9312893730496,3755.886671510195,514.7274217181457,859.3865559548333,3394.9920932988944,737.7475304957691,3297.252468736604,3687.341241789094,2434.8767512013537
2300.1461095572727,781.1239397830957,1295.9704986260926,2879.094358947471,1227.8264308476234,440.6591086485744,4265.45846525961,228.4514127263872,796.0748833829441,419.2487466822584,3142.6365913025,2695.3087941326507,2910.040370109231,2223.506075821153,2423.730143108316,2985.850711180722,772.0432149529065,1159.8535033061648,2763.000601506328,3424.2634139333927,1124.3425385906794,2376.5928802664994,2481.938822451795,424.351881265733,2043.9260355793813,1132.4456677439885,2756.3632990696424,3668.83786109826,3014.706605879888,659.0933379396004,3876.629313741427,466.6884155864052,4209.18090567383,2299.042407281448,851.5024451313905,2026.7882199600865,3871.953528126268,549.756766178293,811.4197324623956,3373.896130494149,846.8208124884104,3389.874789112212,3775.545815439076,2440.8969045349827
2344.6344071736407,741.7364682935349,1312.2219262665712,2897.619964173344,1307.015122117278,401.889012595808,4266.533980952514,217.5754035354746,829.3316163847066,383.2843853848976,3111.2305514384543,2719.466995531069,2904.365226116903,2255.999835992906,2466.0089118718843,2975.654565734981,723.4943238204464,1136.7301223044074,2839.064742981345,3385.558598931206,1085.1497433722,2431.532764515028,2509.6065967037466,445.7416186364387,2106.4161776034466,1141.050102634842,2744.2758856271644,3858.478755813839,2777.939147101898,649.5080952693265,3894.557852305131,466.20444743590906,4266.591786305293,2310.7834141150724,895.1292911848207,2062.968578403352,3929.364189285037,621.040909990415,761.98421392057,3348.694284156244,1005.3453083412484,3473.2129292059017,3809.318593213076,2447.644011074751
2362.493418494644,696.4998897624575,1326.1788761298171,2907.011184791946,1392.4486996163378,366.7644549686888,4259.504124156718,204.81382262236616,852.7937188216481,362.1009134759504,3046.686948351695,2745.745021943361,2898.1325693400363,2282.2401570406323,2503.9939878919945,2930.930012665913,679.5858662512514,1138.981501949318,2922.495935811685,3373.701936159974,1046.1412614234323,2495.8199715093906,2525.3041060169994,510.9716065115924,2182.358306073769,1136.1646529663349,2726.9447827569925,4008.627635874172,2573.994517622419,644.799078331778,3908.151894239893,484.8459307320254,4289.560308676852,2325.476995861128,957.5525894116888,2099.754051167277,3916.526482187083,703.9942832030576,710.9749746451007,3296.862710246113,1200.9382075347128,3527.7076743153125,3753.563444256035,2455.38013406919
2363.82296125579,649.915484736724,1332.403368397769,2897.6119792754257,1482.0851526269971,343.1121797228998,4249.209549110256,190.96190412234432,866.8880074494673,362.9817775645306,2966.67572611349,2774.2317095592493,2878.4826249380408,2302.012296321847,2540.868581380115,2853.794334218904,644.9922572443602,1160.6822592018616,3013.7254141303374,3387.0330509132345,1007.2498154598918,2574.988244973683,2526.339272362961,609.1093530047701,2270.409027680196,1121.8858532725658,2708.061898387322,4106.758069030295,2359.588345720979,647.7909166712925,3910.442849945525,528.7378022953012,4286.302474101876,2343.937677774584,1035.4658864303458,2135.5754151997085,3831.8540606317774,779.9625768747424,658.316903630086,3208.1347302142094,1417.9436542769945,3537.659755957242,3587.519642662992,2464.6757864087795
2358.668582290119,605.8707063853881,1326.5941877206849,2849.6790647639286,1574.5495966261485,341.759713393385,4238.887862214978,176.64021787020988,872.8398644697379,390.62729631679576,2886.264715807575,2804.980104607564,2835.686722579271,2314.8513162845065,2579.1050491189108,2753.804123449,622.7900357976528,1194.0008401962375,3112.6637669191214,3414.588290787674,968.1394581990384,2672.862901461185,2512.778845513697,725.6404182696342,2373.1312594534047,1104.7484403583362,2690.762155404415,4153.355903045162,2177.668896512378,660.3591693433759,3892.320890066426,598.6107957793004,4267.61794290438,2367.2403224833824,1122.358766912724,2170.100319701065,3684.3942781990863,838.3913708905054,604.2774640390762,3089.690395282403,1640.0601151446572,3497.3535342237583,3324.8334916883787,2476.178294494376
2355.645915991311,566.6633283999959,1307.1017279679336,2754.654672681329,1669.9162759537962,372.6247768954247,4226.668471915793,162.1562035618265,872.0196281569476,445.6906427389638,2816.1001412196006,2838.002911551831,2765.5684052933634,2318.620813055172,2620.265268519968,2642.8375821893774,614.5884691429812,1231.159914174456,3218.28937766128,3438.624632393309,928.3805088753376,2787.8995805370178,2487.204935324439,845.793228631607,2358.30938401886,1091.118602376048,2677.0917057349834,4158.9603233073685,2033.9093020440305,682.5579806565443,3847.811704400316,690.1577097797056,4243.844828540869,2396.07540946614,1209.3713833793222,2204.0142691359006,3491.7899753234387,876.4866554584544,550.0248039349071,2960.139367483001,1852.6535602756603,3412.4935566096083,3009.4596885283354,2490.387864253127
2361.387352391322,532.8499345210748,1276.325837352539,2620.0739293136085,1769.458028488648,440.5477346035234,4200.836855429009,147.51978950416833,865.7750401585215,524.1042832108508,2761.807780690144,2873.1955981104816,2669.9043730665694,2310.3969211714584,2664.494642288425,2530.097938538024,620.2008144821609,1265.9483150668743,3327.4902050946257,3440.19459243605,887.5762398435645,2910.812613048808,2453.7980063383816,957.1282204182066,2493.155305031709,1085.231360484223,2667.87731863533,4139.277861592583,1930.4714471386828,713.0795615605768,3778.1156884210113,795.6846985765262,4222.762706161813,2429.9889344512385,1287.7061951099472,2238.595611063224,3275.771772501273,897.1517680075435,497.9042398227343,2840.562922835516,2044.3964995957165,3297.5275422309915,2696.017614288616,2507.5475925826804
2380.441873891992,503.6285891241084,1240.8849427292298,2466.535136579897,1874.3662353739192,542.8894654099929,4140.680207002138,132.5556132114175,855.9835345286735,617.5887390630837,2724.4012212998023,2910.239574606331,2555.033722612835,2289.221965126014,2709.7506589294376,2419.5244028327843,637.1140423555664,1294.5220647294425,3434.32618769344,3405.4282023956566,845.4739675040696,3026.056306251934,2417.2333938464994,1051.0335129991213,2628.6441655952613,1088.3991401568255,2662.933760189312,4110.284422723178,1866.7105225934897,750.9667822329918,3690.407361573135,905.703933054323,4208.698220285956,2467.4199260944283,1351.43713111658,2275.198370883365,3056.9605580141133,906.3121998217229,451.13282385028833,2747.3191871524928,2207.998233254297,3170.0076615585485,2429.92314606844,2527.740687968908
2415.391028123995,477.4045109824394,1209.931241194436,2316.285418732252,1984.3928566350107,669.3819031374137,4027.0363284349496,117.04593041194356,845.9048578508721,715.7481867556075,2701.48295524428,2948.681918995081,2428.660699416042,2258.088639481377,2751.9043169412257,2310.9474741927843,661.1264864236516,1315.4687447167184,3530.0915973386736,3329.748683837536,801.9804678129003,3116.8332921797087,2381.7375807582093,1123.4356207568085,2751.0562038561425,1099.332978914324,2661.460580653117,4083.7566459930495,1840.198301241648,800.6626077924091,3592.311146863838,1010.1871645573642,4202.229893330746,2506.4055199128884,1398.8423585296189,2314.9769751581266,2850.953729097882,910.4739669465488,414.44427923760736,2688.426767915027,2340.502727198259,3044.206600118612,2235.672208264132,2551.0319487270776
2466.9482945778323,452.339903737196,1191.9776649026012,2183.3314860160217,2097.0945551889754,804.3803571299043,3854.7381966399935,100.72799839025448,1013.6189688792164,808.9288555539906,2688.8256446862256,2988.136473279248,2295.9335174791927,2223.284668710297,2786.0561816588515,2203.8241033945988,688.1077225397503,1329.2455379013925,3602.688740004711,3218.304262944132,757.049361077409,3170.581734007233,2350.4999749121034,1174.8013928230998,2847.787382092936,1115.124229993669,2662.49539454574,4062.902109963452,1846.3524571170708,881.2663259044475,3487.657000211332,1099.7775304528006,4199.026571306289,2545.329273824397,1431.6129623436923,2358.93496222124,2666.155725217749,914.9324848238356,397.3438888119849,2663.3727050741986,2443.042272411079,2927.151366927267,2115.529682770448,2577.486028478357
2533.938622006621,426.8554812708146,1191.8910462998742,2070.106833960152,2207.564823026992,931.3421715817242,3636.571325700346,83.08692272286135,1014.6076860326998,890.9188102360151,2681.9250831177937,3028.43440001715,2158.6627260547866,2190.578625689452,2808.347466278181,2100.458498427239,715.3688592406957,1337.296122404326,3636.885596796661,3083.228749439985,710.5915917200891,3181.4851689412444,2325.4138634625465,1209.2910656537947,2910.0279133966114,1132.3628298220497,2665.252011872852,4040.8181291429337,1877.139704809631,1023.9882127233492,3376.592199045699,1167.5044923974551,4188.112392321602,2583.322591428106,1453.165932982413,2407.9828136374845,2503.226879419496,922.828988251598,416.7241423341038,2665.299267690459,2519.5836083504623,2818.071369305135,2055.6247464778457,2607.090728136074
2627.147535217987,400.0206179248903,1209.9266851842706,1970.0926612467829,2308.952775034923,1037.93304898852,3397.8475878499094,63.53537549993507,1030.0511431248442,960.816773173681,2677.1620270987696,3069.6925438850662,2019.3124517584013,2159.251592223912,2817.7450578145463,2006.582116277436,741.2839050187326,1341.2620039617805,3619.05551800985,2939.829159366123,662.5858020142807,3148.7300489938025,2307.052034515739,1233.138293018906,2933.901647389153,1147.9941237540038,2669.26736918312,4005.087464840984,1921.2713678618668,1248.0302006983134,3257.6565983403275,1211.051125851599,4152.953659640449,2620.3334360218723,1467.7798229795958,2462.867489943007,2356.583597028694,935.0563065321924,493.36262420685193,2684.289679997172,2575.4401548830874,2709.960946812208,2034.8301463957569,2639.6974191956106
2712.6322010855065,410.6781707974658,1242.88508570294,1873.3935536754684,2394.2083956391016,1119.3289632643528,3167.1393628517008,42.21524597853204,1063.475153277143,1022.7637887935156,2672.363444912058,3112.2753013411066,1885.072291372162,2120.283567888684,2817.1139058876856,1928.9032842934043,764.0959846515482,1342.527226757859,3544.0659836062177,2803.064166386669,613.2709815147653,3074.851837303914,2294.883210544433,1252.967049801076,2920.333850097186,1159.7935556646105,2674.422239733587,3946.0342214346897,1966.6041932310584,1539.8850518821728,3129.5936500949047,1233.9298020572996,4076.791878246824,2657.0234135352803,1480.4214205921237,2524.061069988508,2217.612859357809,1005.9607365262424,643.2790676771438,2710.519981243766,2616.509020867293,2592.846462625776,2032.8690085156925,2675.0915981477337
2795.641278689262,414.9159196474766,1285.947242865846,1772.0848721610555,2458.262239344651,1178.0486140027322,2967.4979309971736,20.46651409070546,1115.8108673034087,1083.124236235516,2666.799824210664,3156.6376008669827,1767.631700117441,2063.693951132432,2812.280341436079,1871.2149456572708,781.8937073543068,1342.0236752501814,3418.810643064938,2684.772361029345,563.1696099544799,2967.817997051207,2287.713013189367,1274.832142317696,2873.895103812444,1166.5889488447606,2680.9002273879223,3863.0215695018505,2002.9026579775807,1857.547331819608,2992.7384814028733,1243.7087815038694,3948.645676030173,2694.544520713921,1495.5696300230964,2591.593155961024,2078.202241005658,1033.6741624090412,870.2179574854067,2736.442127712496,2648.906411125731,2458.4521261481186,2035.249134958297,2713.1369680977127
2867.427219032289,497.2138870037554,1334.0842613865043,1663.5565305421533,2499.594121798974,1220.681005530099,2810.5710039536016,0.7396228150755633,1184.7614548580789,1146.8261390163757,2660.831549992844,3203.132383198352,1679.3742954811516,1988.6761070193868,2809.248459775594,1832.564664909286,793.7705099311249,1340.1756186362368,3260.392870061317,2591.91056774301,512.9137333673275,2842.4760446040373,2284.1619011329303,1303.555375243719,2801.469018138583,1168.2482113228723,2689.069073511837,3765.559424117646,2023.440219926,2149.9312318910406,2849.328700961515,1248.2700056154615,3766.516545139768,2734.197929729784,1514.940223286285,2664.981100581216,1933.461336340048,1061.04404893067,1163.3566912737078,2757.771208034537,2678.1140313528813,2304.122451863312,2034.2067592631367,2753.791433771774
2920.444687511936,693.1567983671355,1382.978105610086,1551.1282628776544,2521.0041917085564,1253.8004178063106,2695.228584112406,-12.40757441371352,1265.2422097203644,1216.7697515186703,2655.4570298097306,3251.8887455649683,1628.746668923387,1907.724386979316,2811.965292095319,1809.375244405076,800.892487840367,1336.9911724290948,3090.704157391748,2526.045830631684,462.9746726245678,2717.2920235780216,2283.00973710045,1341.6778068681006,2711.2091044915824,1165.3836294443136,2699.2695686633224,3669.2638328026906,2025.6299356147165,2375.5668308613667,2702.7489620855163,1253.1847581586646,3537.6906619061774,2776.63387270359,1536.2648304968916,2743.5912513310486,1783.3944123059423,1086.5093439229497,1500.7405177488413,2773.4286984111145,2707.6633147232064,2133.993432410248,2027.231038413904,2797.022123986282
2949.18565748888,995.0230557808728,1429.8642297704334,1442.085620139556,2529.4199180820297,1280.9528876226348,2610.086547655613,-9.909796251113676,1350.4801054830348,1298.19749521699,2651.900889671028,3302.8347835903314,1617.2702337826386,1843.7172508075105,2822.43876224534,1799.3549777968178,806.6638487080938,1332.2549739835497,2930.96444944192,2484.423780007333,413.88219133029656,2608.879741926037,2283.424832733705,1388.7411745602003,2611.5640216599686,1158.944210359317,2711.651873135619,3589.4462059533776,2010.866653907878,2513.434400003789,2556.931186471861,1261.2669453015783,3277.0295837612257,2820.3714833597264,1554.443925178783,2827.1548793532847,1633.6186903739554,1109.690451361408,1856.7903928990809,2784.716398572901,2738.197765666143,1956.7332827760624,2015.370519502779,2842.8023946742314
2951.47930263354,1353.6587164907942,1475.2222164325774,1344.532856705763,2534.1296554347346,1301.0945322708958,2538.247541394692,22.3088114291495,1432.983425849385,1400.3718274946302,2651.3006712099086,3355.8495295408475,1639.5454109500783,1822.668147638142,2841.980916470185,1804.2570366349569,815.5507626835113,1325.691376954937,2798.276365268217,2461.9610574219096,367.4472621431082,2527.9124672837866,2285.069956741376,1441.6682500992115,2509.9230625147293,1149.908206249871,2726.21617110087,3536.229656659121,1983.2284015119064,2564.7193445407347,2415.8950775361136,1272.8299998659172,3003.7762895539936,2861.187403490982,1564.0777833868967,2915.7927774597256,1494.286460242703,1133.363238578443,2209.5997731115235,2794.130361465779,2767.2206559863826,1780.721971981386,2001.695143697469,2891.1779140741405
2930.4866852397868,1702.3288954205818,1525.2519300331264,1264.6558508020323,2543.3903910894296,1308.6988264733332,2463.1939864184124,99.35144295049076,1505.488063613543,1529.4481253510924,2654.5041950507584,3410.9604257953865,1685.6412786888404,1865.1155115255035,2870.926835683279,1830.650841557037,830.9415931869573,1317.0308817074815,2703.825347204909,2452.755960692115,327.3864550500541,2477.6707147065235,2288.017312752617,1495.7829006743348,2411.108433519277,1139.0697080217676,2742.991596359336,3512.6478724937783,1947.440852200076,2547.7106763342304,2282.972052808376,1286.169147578277,2737.638168387529,2893.874058595403,1562.2278163560795,3008.310152943097,1376.6521251799463,1165.286412780466,2542.7640312594963,2804.664419414215,2789.692132536583,1610.0223127746056,1989.442340791104,2942.2975304421693
2895.6944149610777,1981.33586488894,1590.9742314483965,1205.2107784433722,2561.1207041039224,1295.6918191038676,2373.927887636968,230.9465563592646,1562.505227848487,1681.4145110024429,2661.9224590892845,3468.446082212437,1744.160070822384,1980.2167991424249,2906.7663852647693,1888.7595115265533,853.6532519508437,1306.0177030135892,2652.107403614306,2450.8705938335747,297.84463856021785,2454.949741548811,2292.551946037636,1545.9337987851045,2316.893144119312,1126.8671188017709,2762.1712793702345,3513.8226947588228,1907.2934698480085,2489.4091893096665,2159.945767434265,1299.287427789794,2495.236925906312,2914.622803003193,1550.864740537912,3097.327377954857,1288.9233419150537,1217.346898644901,2841.348913615877,2820.1345054279354,2799.83283289916,1444.2811653963113,1980.4525242440027,2996.383208733987
2861.3646061028053,2154.6795094322338,1681.5677682375187,1165.5849663186054,2585.963993185371,1254.5208453135651,2267.1075932334475,416.7000144217302,1602.100797215633,1843.567711670588,2673.462406805438,3528.724328352787,1804.9363603140189,2164.771317079789,2943.3706750800816,1989.929496071937,882.0102117648385,1292.444387626948,2640.8781906505783,2450.8445760304994,281.64454091045354,2452.407105604602,2298.993133844765,1587.6236766388,2227.012884004752,1113.5490364451982,2784.1331454223005,3526.895177768729,1865.2548635899389,2417.1829961578387,2046.270424760208,1312.588968205561,2287.8144262713413,2921.73787115441,1537.3533193366222,3165.3040034320934,1233.596967338096,1302.4629511525582,3088.358202446921,2844.9905717107163,2793.325802491501,1282.2385430981642,1974.456723375564,3053.6935800184265
2842.341613489962,2216.200889610281,1797.90811203108,1143.63603973999,2612.9977668681504,1181.3266674274605,2146.139510693909,645.3186747993302,1626.5735836734957,2001.164771139718,2688.635554580804,3592.1948570046297,1861.147943316725,2404.282454977265,2972.6981495457785,2143.6923350279267,912.7765490807684,1276.2286728079516,2662.110020423292,2447.675865192903,280.0735835576045,2461.2943813798283,2307.5949320854006,1617.8783652583388,2140.6811843128967,1099.9227049160477,2809.357693486235,3534.331754918425,1823.0256095258555,2352.6841281548286,1939.0765832709287,1330.4739816166489,2120.483868360084,2916.625368940271,1534.6303776360494,3189.1566473631465,1207.1191119095,1431.0030858959308,3267.065152949014,2882.268168224372,2768.678406418482,1126.0654684939532,1968.643326529284,3114.5042133791003
2848.7375214570875,2185.574456972241,1932.0703840425228,1138.6266128869056,2636.4866684190847,1077.9481077803266,2018.9103055258065,897.4475247962453,1641.5133762677374,2143.292324123679,2706.821632561626,3652.653495793831,1910.4310909338808,2673.776149038264,2987.689185013905,2353.4038902807897,942.514061521994,1257.471961709973,2704.5063913523977,2436.234683806461,293.34595200191166,2473.754796821623,2318.547317295034,1635.6450953907915,2056.861486789375,1087.707859584572,2838.2398909840404,3520.463411704349,1782.0245887124836,2308.901185621856,1834.771421296346,1360.604618416634,1992.783140572008,2907.189076699653,1564.3236740522111,3151.8356726128504,1201.4936777932412,1607.4834521660755,3367.106168386637,2931.6467691443017,2727.699685116917,983.1976776145588,1957.4138457901256,3179.060915136599
2882.493582286728,2097.980536460946,2071.6546097768023,1153.0820914851477,2652.136370834002,951.4263611879315,1895.0874673387632,1150.2616786324934,1653.8906000615352,2264.955124655548,2727.5399295414463,3679.724212445659,1954.566759707296,2941.3535718077587,2984.5405321047683,2609.9491529926404,969.604714339372,1236.4356391342842,2756.731349241335,2411.215845842371,320.55160487489775,2484.3058126202195,2331.9889540296417,1642.0293843620943,1972.525895786604,1078.3963037756164,2870.9512362603864,3477.0936609706105,1742.6247804336751,2290.06414391754,1731.6624941203968,1411.727051059413,1900.3481656488025,2908.0497413248218,1652.9731369072883,3050.92412257387,1206.8926409666428,1828.4460039952223,3388.985665482708,2989.715813449155,2675.400414267136,864.0554657377784,1933.152115203844,3246.0311896173903
2937.9935900684663,1992.5786315439937,2205.772517434651,1191.8360149661034,2658.207837689075,811.3855766683312,1783.1444066385795,1382.214867416678,1670.072759930802,2365.518912288935,2750.594541903501,3405.2280090872164,1998.0167967262423,3176.070873617994,2963.2504402127847,2888.756343266019,996.2154071599,1213.4374576070322,2809.552403927108,2368.3806990457547,359.0818351527914,2490.366572974161,2347.9405126430247,1640.584534610526,1881.741436085622,1072.064814155114,2907.4907860173,3404.91195651159,1702.3430172306632,2293.535809648935,1631.8324351748918,1491.2658824182986,1837.2731884224097,2932.6647474441875,1813.9943369670973,2899.317148019014,1214.2271808325015,2082.2350449551463,3344.399993118898,3051.774802599417,2619.2339341074808,843.533245163826,1888.2307633369048,3307.987102482648
3005.7242039164576,1903.1488654104216,2329.4866152554005,1258.895681573264,2655.563288053554,667.4855492563395,1688.0293969027084,1576.9787169531792,1694.3259864977615,2445.864746608147,2776.0742901071567,3202.6422870411607,2050.7910671473696,3356.265882739708,2926.4435402251684,3155.486895470898,1028.3363859417236,1188.7334082592308,2856.381241536141,2306.464853647293,404.49160918150073,2491.88068147351,2366.2894594887703,1637.2520953826468,1778.576855024838,1068.4417815716197,2947.786539794348,3310.968875812408,1655.138363976023,2312.786739320285,1540.6265109619767,1603.6211119064608,1797.5906937471736,2983.62990837732,2033.383793342888,2719.999280676956,1216.8842597503976,2350.561798910566,3252.932895892454,3113.646146307553,2567.803638961819,793.6861974074759,1817.5307277528484,3349.29006607676
3075.5659515027955,1852.2346747933188,2443.215625056136,1353.9982554028584,2646.956423248056,528.5633181666344,1610.7523394574523,1725.6952233915115,1727.9319164016756,2506.268873363032,2804.2635810978286,2861.980085557089,2085.1791154633584,3473.884906482192,2878.1152285101,3377.435180633559,1073.026472575866,1162.3771359488346,2893.190725803759,2228.449853674632,451.71693035484896,2490.405514494633,2386.9388121776683,1639.527982820949,1661.2982590519791,1069.3509222586003,2991.9918985146123,3204.566403098067,1593.4765056039466,2340.4307807797863,1463.8264157706967,1749.4279063158813,1774.9030273922745,3049.046125007167,2274.7257008193224,2538.239500779472,1211.359251518022,2611.4377129434624,3136.945634379953,3172.7536378358864,2529.538098879312,769.8233156388537,1720.2781919656627,3352.69717688293
3155.5272899021084,1849.03109715659,2547.848775814241,1470.5648616172366,2635.919944137263,403.149634440118,1549.9486195048366,1827.6570547935064,1769.234378469933,2545.833170318641,2835.521956345521,2430.466800178626,2080.409707662045,3533.977258379328,2823.3949577428075,3533.3832245810354,1134.934228399395,1134.1229074253465,2918.3367578522334,2141.2245027917184,496.8526046689056,2488.156607716175,2409.9627300476445,1654.8949045275206,1533.8828725266055,1079.6491213933505,3040.9087585677457,3093.9457431507617,1512.5719011689614,2370.3423355598925,1404.3316118095404,1923.7684321645568,1761.657832347072,3106.209182442873,2495.437679694025,2373.9889830563643,1196.9920321063803,2843.118033716596,3016.533779272291,3228.437330978376,2511.473527655247,758.2784778885716,1600.3028907209382,3309.5059240836345
3190.859148433733,1890.5797130852,2641.064817243922,1596.230441024485,2625.7146867867104,299.8449283462189,1503.9730421911868,1893.8082808922247,1814.8958324486905,2563.695818503464,2870.194521847104,1979.866965270772,2015.513484216756,3551.075382878423,2768.1939133375704,3617.4192505310057,1214.7721280140595,1103.5516485691137,2932.020958348948,2054.109206358238,537.9182209453686,2487.253259910121,2435.6430510313853,1689.0590645569032,1404.742085599008,1105.3350070059246,3095.6316179882933,2984.9125843493966,1414.3545194011112,2398.605737904724,1360.4023211213828,2113.4314340331694,1749.9151465522004,3129.9975595826377,2661.724815721061,2237.0031205585265,1175.1465832949943,3028.3730325809274,2906.081704601349,3281.6599353752254,2517.4718319094795,744.7844089286596,1465.2718937872316,3224.462589804514
3186.572556410493,1964.89925319478,2717.964445985996,1715.802101276127,2618.7026931573973,226.4112147813608,1472.1981542060537,1953.9435203001767,1861.8484330254184,2561.034976116023,2908.56482353149,1579.4339017337022,1895.1438842799987,3544.692462555517,2717.994625047074,3635.740224255319,1309.7553247504843,1070.382168612731,2935.326707287796,1977.232362487233,574.6247819000475,2489.207572953653,2464.3950174335773,1744.642696717253,1284.1927476134852,1149.464897347646,3152.9330781783324,2880.9364823286696,1308.1559533647169,2423.648405316843,1326.5572208685471,2298.004310328187,1733.4904906361471,3101.5480818803217,2756.915595911454,2126.0870064466567,1148.1535242018454,3157.612761753523,2813.1174488671845,3334.258798221782,2546.108651192128,719.2494864649352,1326.1415118316409,3113.7387964954987
3134.807100783152,2054.743562246312,2774.0190206714087,1815.2449711918136,2616.1545439055326,188.131057173232,1455.298987141327,2051.33579099148,1908.998510657111,2541.854522438568,2950.8752413416782,1277.0969323260538,1746.286583008217,3535.8803695669367,2676.648585908682,3599.194096279384,1414.5953962703838,1034.7081278260528,2928.8830701473235,1919.235138253689,607.8029834429306,2494.7275293984526,2496.596910316483,1820.724594594396,1181.5617333959667,1208.625667905203,3195.266098690268,2783.823961519284,1207.3302563843015,2445.8367199898125,1296.556932521846,2456.185209897353,1709.8518184337029,3013.75458226457,2782.5079724235784,2031.750661826268,1118.3317110357257,3229.689473540561,2739.070303256988,3388.180319866772,2590.273789884166,678.5659498908603,1196.331083476071,2998.391564854357
3042.2654202800004,2131.7113724993133,2807.472139371225,1885.0374302239989,2618.3235683519,187.1478941929754,1454.2465181980128,2099.7292638632084,1957.9481701100567,2512.051770657743,2997.4076855338726,1091.90678627635,1601.8999055845522,3543.808041985376,2645.8513101098056,3517.5505674335923,1522.6436446568723,996.9538144869556,2911.561995020585,1884.281749695852,638.5504927499694,2503.8295556734915,2532.423706663807,1913.475059494468,1102.701183068218,1273.3011932881136,3190.208687950082,2694.731250721823,1124.179788301651,2466.721007784111,1266.364010103075,2572.7635529949016,1680.477968875609,2872.6975268764663,2753.798112614149,1940.6716471086863,1087.3542103318296,3250.3808286381286,2681.074517705045,3445.057343460938,2632.024009543761,627.4171723619693,1089.1431362135854,2896.9792282561853
2927.6101265180914,2199.056825917886,2820.128822207811,1921.560105721628,2624.697677659685,223.54335665353915,1467.5338400910266,2331.2894554155746,2012.314060360712,2477.987459250528,3048.390878516444,1016.2316023018608,1487.4631060362044,3580.6341941082865,2625.257098827024,3399.1571750259936,1627.598563118403,957.6193248990678,2880.150971207748,1870.827321185644,667.4137602400431,2516.1126084660937,2571.8046443119047,2017.549976134658,1048.737329898299,1331.811103798531,3110.470057703325,2615.050105115264,1066.082957936262,2488.2238471944784,1235.157462619508,2642.388799531055,1650.1333276950418,2695.552709222773,2692.967386173271,1841.0569025542825,1056.0617018944404,3228.93137623197,2634.0916672813946,3506.060233627189,2748.324191532497,576.4196838059504,1014.0900810877206,2821.259094616563
2813.5872751672896,2249.3053112883536,2816.7869957460143,1926.293225539962,2634.3712379914887,296.88490067399994,1488.1570741898768,2599.402364187341,2075.9468209360407,2445.2488318311325,3103.840853514728,1023.9689922708958,1415.7707520259123,3647.8963498537087,2613.029172687094,3253.1973154818056,1725.39994393586,917.0497489484268,2830.3837451645472,1873.28479881211,694.1505448622202,2531.055332260236,2614.58158926368,2127.1446786105253,1016.4649523665948,1374.7602323793858,2954.594443731417,2546.105937605328,1034.101546590442,2512.0397726826805,1204.38049724172,2669.471811488701,1625.5640654800832,2505.896838795501,2622.293957693703,1727.691945376028,1024.6002654229023,3173.6023884031374,2592.8678484947027,3571.9144732631685,2621.030816705579,537.7557604379774,974.3727808317558,2776.418348919267
2719.5129054298395,2287.9678470654453,2803.9186560281687,1903.9968265986167,2646.392879282377,406.5620384352569,1503.968563157968,2863.4693034502448,2150.96532025332,2417.6531476682567,3163.6934780526826,1080.7752344550977,1388.0611712686095,3737.843577547918,2606.632684942491,3090.08720062716,1814.895173911301,875.7067190622438,2758.680054089671,1884.393015052857,718.045242836876,2548.2178596372128,2660.81458162768,2236.0750998699864,1000.2126051875946,1397.9510638456595,2747.4849662916504,2487.7823968106363,1023.8087847031264,2539.3487593354103,1176.1239633165726,2665.3006798381434,1613.0702369843948,2327.407709946313,2559.20507921394,1604.3620531845695,992.6407365741012,3088.421580167159,2553.357296888582,3643.026533181544,2365.675148346261,520.587638698941,966.6682368945384,2763.6101822015426
2656.775953800591,2324.7426178999312,2788.116483271452,1861.284066546446,2659.971560181638,551.0321784372318,1502.7641940073108,3087.8751262054075,2235.936159181492,2396.802873423438,3227.9099749413863,1153.5943100550644,1397.8261077975103,3838.112425149863,2603.630229140748,2920.1470490564325,1896.957869298767,835.4968715625573,2663.8135913952847,1896.651978536511,738.0218804160197,2567.2867453043445,2710.946091234817,2337.497010233564,994.2743441971056,1402.957034378711,2525.959598840309,2437.732558828335,1027.460912469534,2570.7592570390625,1151.8509262985715,2644.0198627303344,1615.4890764504555,2177.945969627214,2513.8845062377018,1482.2493327707894,959.5865616289184,2972.824451494801,2513.318860625381,3719.6537042282735,2057.293856524408,529.0075627111464,982.878906738188,2781.538854356294
2627.8189096322126,2368.7699283167008,2775.0042932184774,1805.933892406884,2674.584117177839,729.7302567196473,1478.5352773182904,3250.1704961448377,2324.8418915319835,2382.371465679755,3296.306097906613,1217.6878445341413,1434.745976779216,3936.6748431232495,2602.207388159065,2752.786678033161,1973.2364936632173,800.8329017838514,2548.1110907200946,1903.503074702386,752.1563654588344,2588.0409075393354,2765.674913071958,2424.3093659360065,994.5973572664208,1395.2253446789657,2322.992151633192,2346.215787940203,1036.576714636719,2606.336750042999,1131.7666345736366,2618.955199077292,1629.8826649635885,2066.372219833571,2489.350603383002,1377.29048913695,924.8009545403248,2823.774665548949,2472.167733024902,3800.9549854331744,1816.244828614488,562.9812628029506,1012.8326918063864,2826.2066883154475
2627.8250434637857,2425.466956346875,2769.1439708046014,1746.2084319631442,2690.032130600314,949.1217487762844,1434.1261318469851,3344.2387358777087,2408.36371711686,2372.8650926499085,3368.519613055708,1259.8426249573135,1487.3614683866235,4025.1975672999215,2601.3294395443563,2595.936588453464,2045.2080084556856,776.8902323125888,2417.6205849868966,1900.5726913437893,757.5350240750363,2610.342971407219,2825.716631171811,2490.695979239348,999.2217913191153,1380.7602006260088,2158.224891575987,2301.298099380748,1044.0572427405937,2645.72426146253,1114.8065093990897,2600.126731081961,1646.671510754697,1992.5341604239727,2483.212185922984,1309.7536861927774,887.7523336959907,2639.19021681241,2430.5181561873383,3881.192031283567,1729.4285974707702,620.442070698346,1046.8806460173496,2890.0591545210405
2647.83302580214,2495.37007130283,2774.030409196912,1689.6000525530628,2706.4053816975693,1221.4678283506316,1379.1180198830766,3379.476826164532,2477.227512702223,2366.473071281479,3444.242329848188,1277.6680538146136,1544.4395667412684,4099.836996992235,2600.6687043273487,2455.119529343085,2113.6989323402668,765.99969536294,2280.8222997574426,1886.0380134481927,751.4506167629156,2633.953618027798,2891.537716434581,2534.105405092703,1008.0688188018988,1363.903106271562,2036.048634411933,2256.666276684944,1045.3324177638465,2688.392834405749,1099.0825817912937,2593.129320657854,1651.4929912269472,1949.0134543346253,2490.06304546157,1299.853918345571,848.0858674931342,2422.160258712294,2389.702182206572,3946.416146373212,1815.3993915135995,698.6273435028361,1077.704179095521,2961.663900934238
2677.971531048999,2574.177719315163,2791.1791486378115,1641.3176471332465,2723.9836654630376,1549.2585866788563,1325.2105408300945,3375.5850831038315,2525.409647398306,2361.699500945968,3523.571169147739,1276.3209260696017,1596.2645470061125,4159.735042376162,2600.466657710879,2333.158007586448,2179.154304188083,766.1464136786019,2146.533794443968,1860.1427341623416,733.3759814440662,2658.1787177092165,2963.085239389853,2556.177883676177,1022.294543714812,1347.8646590727333,1948.8981558729868,2213.5398378161226,1038.5451282044835,2733.903641557772,1082.5086761567418,2599.2668025894427,1630.787533208832,1877.8974737464328,2503.7947952691648,1355.3278394825606,805.7793171035412,2184.7412766235107,2351.293638045799,3978.094139848144,2034.156888286513,793.821562347184,1101.7867666405157,3026.5778760760672
2709.926868249177,2653.8365348066013,2819.3972053330194,1603.0593307456622,2743.1280229424747,1911.874109516109,1281.9458357555611,3355.0627301571194,2551.642681726192,2357.696295878686,3606.205508136933,1264.4187042293083,1636.4186397699596,4204.9784112583775,2601.308447152196,2230.8534179433354,2242.161280412972,773.0298795416816,2022.1121591456515,1824.835878622264,706.1455360781438,2682.36735770796,3039.265139964287,2561.9294902420443,1042.9062468737352,1336.3788194764063,1882.8121953631307,2173.347864122449,1024.0645025051049,2782.0482095229418,1063.2876638380758,2616.636518824245,1578.7371960356825,1857.501711483962,2519.3587416816627,1462.9692836778129,761.6967862408121,1948.822804468712,2316.695504389623,3962.6984108056686,2315.353195097762,899.9487468572158,1121.6381086175168,3070.245168449664
2738.331513311646,2725.027992425204,2855.428401425444,1572.4921063441911,2764.3621526765683,2269.2452207652223,1254.361716610549,3336.7816069899573,2559.066623180096,2354.339154945199,3687.606565641168,1250.4192316206368,1663.1376446873137,4235.71243652942,2603.8296963241064,2148.025062554963,2303.318497515942,783.3595862238976,1912.2550255626213,1783.323442484256,675.4326362036611,2707.2071889176104,3116.1625340431992,2557.9476383432,1069.2855144816226,1333.950194716672,1822.9086689476865,2135.1536653185312,1003.6533109338033,2832.8374810818664,1039.4293237434115,2641.6702767426755,1500.5693973291382,1829.758048335984,2516.4116184389104,1593.3925783057025,718.715286306819,1743.0407674590429,2286.86896876876,3899.49534477234,2587.39867655772,1007.7760204236596,1146.713157903661,3082.5128146610496
2761.055648350296,2779.9600946914243,2895.367859125643,1544.023923139372,2788.8184297285206,2576.56964643016,1242.6752758365756,3332.707557226695,2553.669039067918,2352.0479813093743,3755.825288104003,1240.1444761222197,1679.218965773022,4252.4260764223445,2608.583622097461,2082.5441739122334,2362.7137357232896,796.4676961467021,1818.066355161614,1739.165246486099,648.0753670604427,2734.817099085927,3184.860802519108,2550.8423574756266,1098.8021997702022,1344.684601383566,1757.423122944631,2094.85356787517,979.4814252087136,2886.4368572269987,1006.9304062800712,2670.619971091142,1409.982132920545,1789.2366570158486,2507.147345940134,1712.870377063083,681.9069815170858,1597.108858279215,2262.1911710602326,3801.070367553237,2797.8895673823017,1106.0342444001635,1189.190790172068,3061.070642312736
2778.582107947248,2813.742649663163,2935.8880922066664,1511.000671554869,2816.7732667209493,2798.683307114925,1243.4040299697522,3347.845598164884,2542.3538085049167,2351.46761749098,3795.017127577933,1235.8272126696793,1690.3461930124838,4256.454584021552,2681.3804011569264,2025.339127898284,2419.8429480260666,813.8316712118503,1736.6364397556993,1695.730948544001,630.6302235555072,2767.321519209341,3232.8934774289537,2546.612728090796,1127.9334738654338,1371.3124324206187,1679.8494119815184,2046.6250512397944,953.457509545262,2943.1388221883644,959.6346589403364,2700.5928283853705,1323.1966178368398,1736.840746662514,2445.4249631207995,1793.944392363375,656.4561287614642,1535.3784208877996,2242.4683096547765,3687.042869818965,2922.2892912315483,1183.9454542701258,1256.466251753678,3011.6329341117403
2792.978954843028,2824.478488661144,2974.9914060442134,1468.2039028398217,2846.820088955942,2918.068520833269,1251.819085382583,3381.698355183519,2531.2808997265565,2353.218492776513,3792.873312464374,1236.6556346112752,1702.7072936233744,4250.107354894208,2686.6505215034053,1958.551374377572,2473.680778191105,838.3347778037398,1661.8530449842403,1656.2299660494568,628.9809566793422,2805.700175647302,3249.962829924213,2550.30025386503,1154.423596315216,1414.7918762189397,1589.240746268704,1985.4763919621928,928.0111060007072,3003.326700578137,893.3898295472713,2730.499216083944,1253.345541471166,1677.3571421017857,2308.1245263998903,1821.3130174775715,645.4154664763632,1571.7166915689354,2227.14237274156,3575.7001200225977,2962.381060260784,1234.2826055016717,1346.3227582977545,2945.1062946943125
2806.951089197298,2813.1879139582466,3012.2603023889715,1413.340256142053,2883.1468756251425,2935.871592508914,1265.7401349494326,3429.9082075945807,2524.822030621691,2357.780987510728,3745.316297946436,1240.139926703507,1720.94929239344,4236.3738676443245,2694.734357595265,1864.3451217769584,2522.313060674438,874.5134448228835,1586.6599203870885,1623.592387861979,648.3198395709574,2849.6744905514,3232.344643680612,2564.998141241181,1179.022000868634,1473.627134525007,1489.127339611979,1909.8684677577603,908.01710473416,3067.391708798464,810.9041643902938,2762.3712797870176,1207.264299036492,1616.1751759504252,2098.0913511237086,1792.4552819826488,649.4853767332559,1708.153200866328,2215.57436603456,3478.5705709428307,2938.327842343331,1256.2780323656089,1447.4573374634,2873.2114084238888
2823.1140664355244,2783.923085714741,3048.610329932017,1347.533779515316,2924.311231340469,2867.952708263503,1288.2181167472904,3485.7695220792666,2525.185769069441,2365.4501482921214,3657.071674872701,1243.4533824700682,1746.8439311934344,4218.397226773964,2705.391680208553,1736.2084986507286,2562.748287467972,928.9732422910672,1506.4211282816796,1600.131827771134,692.328734864675,2898.16385190388,3182.5601513919883,2590.6097645727564,1205.03860519389,1543.3962105561454,1385.6466835069025,1823.5320266492065,901.0334284518096,3135.542593719783,722.2402113462779,2801.178408847926,1185.0357183427143,1556.6848012900143,1844.073334762767,1714.833113117938,668.0031798771013,1938.836701474666,2207.256134104763,3399.3326788090326,2878.49157668759,1256.8350146099538,1544.062971812316,2804.6208031228366
2843.4669808592307,2744.169547660061,3085.678089038604,1275.3689702981983,2968.2638676646743,2738.193824296692,1325.9622648667446,3539.439946283256,2532.610561908582,2376.299498108864,3539.89538426224,1244.273080594747,1778.8879410755408,4198.94459985221,2718.2692857081056,1581.6953961423878,2591.7223433612307,1007.9523359989912,1421.812164270028,1587.052585400462,761.7286396945965,2949.2769466197315,3106.835016435077,2623.5530158313663,1235.8813850603285,1618.2027302742445,1285.5325888811662,1735.0450879179666,914.5742546449528,3207.608606765475,640.3874040069611,2851.6158242860483,1181.564626750359,1499.3587527455834,1587.24894789806,1602.0885835783904,699.8555258568401,2256.869578105671,2201.8944221083493,3335.134161411298,2810.3185303265864,1248.389348338812,1621.3666738942406,2739.033970574499
2868.9580886033464,2705.1565863443284,3125.2210298225286,1204.111696662639,3012.9803503843723,2572.066339449936,1384.59770936702,3567.140583820406,2545.997227199272,2390.14351759822,3409.8414162907657,1241.08595810939,1813.245159073591,4180.040190166887,2733.0061174987245,1417.2216505086128,2607.084680804416,1111.6580505964932,1338.877595359619,1583.4647767338845,853.5193631915038,2999.212963192983,3013.0886112902035,2658.025182357315,1272.9351198628813,1693.083602577628,1194.6587122361875,1654.866072917951,952.8188826738968,3283.1641725597974,575.1233548486246,2914.7556614238374,1189.0731506212692,1443.079099329043,1365.8921192364442,1470.5150808115695,743.9208884121717,2654.920962403171,2199.369084188525,3278.936866954864,2754.2687632038155,1243.8854421827218,1669.2669574740576,2656.868052670741
2899.3258587843143,2680.534133403763,3168.079897215493,1141.6614388426597,3056.9678129526155,2392.9567533541585,1464.3203649572831,3514.63720533557,2563.699616231936,2406.6670492051467,3283.60197434568,1233.212454776443,1845.717094462529,4162.829123159928,2749.2969903398925,1260.5040799080944,2608.704124422128,1231.131526562192,1266.0466253262975,1475.524729430194,961.5931245247064,3042.4210219987563,2909.707448479324,2688.241623531968,1315.4673053350557,1764.7986315357114,1117.1487410911095,1591.6181846398429,1015.1840102115356,3361.8299990971304,529.386019708099,2987.6286134664624,1211.9714525247978,1387.5672693973752,1204.0022910630018,1336.3761328148262,798.9539711912751,3114.796973803697,2199.6754225739937,3222.799101644489,2721.318230345028,1251.7482651559008,1683.572835308382,2521.783729435316
2933.5396745578887,2682.647064907469,3211.621248833299,1094.051792592631,3099.757694571733,2220.963977198491,1557.9079676641368,3309.9943295193984,2584.105341957244,2425.8298673323643,3174.3426625737447,1220.7355101995636,1873.4555032645733,4147.654419737,2766.936467967078,1124.5429709518337,2598.4480351115512,1351.0999158672266,1210.3649165045515,1481.965194592346,1078.3085057071771,3075.003129559628,2804.6593446395814,2710.294539015875,1361.623129106412,1831.416839800616,1054.7894668828894,1549.5738601850614,1096.7498870120537,3443.377787038383,499.960632670535,3065.030869539717,1215.8868866327814,1334.6394908243094,1107.0704128713892,1214.1941397186972,863.0161560331469,3589.3999355132346,2202.938213884305,3161.101306569361,2713.49700549254,1273.6055155301474,1665.5328620965086,2308.120441298612
2970.4958964877364,2718.3879137257645,3248.095902106912,1063.783364179213,3142.005680923763,2072.4058175410983,1651.3278832061287,2915.858258268889,2605.91039803122,2448.0606404247847,3089.236752276456,1204.3336558359738,1895.6390687255275,4134.275743158536,2785.8796790177207,1014.8705152463828,2579.662724197155,1455.5290151039644,1174.994510606984,1478.552026812882,1196.700239050071,3098.0961803902733,2704.8144354843016,2722.84883345258,1409.057963104625,1892.0768728967385,1007.2753238207802,1528.0085253009463,1189.512853779437,3527.758244558322,480.7382941927292,3141.705174191352,1205.5872872836987,1287.4722705105823,1065.0807820990217,1115.5553962348176,932.7611563572318,3987.785169275556,2209.36259859112,3092.1335102772964,2726.417092568511,1305.3963599196495,1619.708963554468,2026.909148907329
3009.452157863908,2787.3983098745352,3267.436173275573,1049.5411321976485,3185.136613070627,1959.3029216420136,1726.3868243223797,2368.4154394236,2628.238260388903,2473.931883418996,3029.943152992582,1184.9947043534748,2023.9706641332696,4122.141575640378,2806.288250949091,929.8195674534333,2556.5619504279466,1532.3450940787684,1158.6121926260932,1459.7569805556236,1312.549730078312,3117.5701172406616,2615.4959436789577,2726.8723996307035,1455.525367480523,1946.5002822178728,973.4276206763134,1522.1774534069482,1284.0264755117812,3615.183258336289,466.0076146039232,3214.0475992962383,1177.3926355481854,1249.0200322698895,1059.9060576126403,1047.9725896874115,1003.35190183208,4199.159253014797,2219.089263553192,3017.5585450241024,2752.538243854138,1340.6604734407574,1551.0700249428917,1724.0744447027091
3050.1541758767125,2882.961296338947,3262.319493267928,1047.1263500457762,3230.883611171408,1889.3724067261096,1764.4123132316945,1765.2145246877103,2650.709326969992,2503.9056131577872,2994.352969623388,1163.6645634900256,2049.2259146331867,4110.638255059518,2828.5304607721364,863.001203280644,2533.4213700020864,1576.1113047138924,1156.3705832774435,1425.218171370156,1424.7574072826385,3141.1348448788067,2540.2684169494314,2724.875036765848,1499.77228747928,1994.218745173462,952.3347274586222,1525.265462237493,1371.1422755407566,3705.91652696828,452.7419456979396,3281.029777517935,1134.4225987776715,1220.7857959704895,1073.0034681634916,1013.9198672495252,1069.5868099876704,4166.204262951023,2232.190771755882,2940.7704240603853,2784.0172642333646,1374.0050290454274,1463.6533536575685,1457.892657585185
3092.7522071904623,2993.7512536424983,3231.64533831399,1051.0439690395608,3280.8527342790176,1866.574432944256,1750.292464144006,1222.6572718524628,2673.4385239456496,2538.3047496147856,2977.5826982712474,1141.0065809049977,2077.342603199466,4099.26725526585,2853.0995414057056,807.3338035986726,2513.6752248969165,1588.2208803943497,1161.675659790903,1379.4850522175866,1533.9814912050297,3175.749116983193,2481.2118230236683,2719.9825072613594,1541.8590314837386,2034.5213152548367,943.5331489039518,1530.4004278043185,1443.4806471460588,3799.2996226744863,442.0648462264924,3344.124772843604,1085.6588924698092,1202.3924185808678,1090.267245532878,1010.6877260864862,1127.4244917793387,3938.5675791458416,2248.7957587402834,2865.31501082094,2814.5863168453843,1403.0784881021375,1361.8768331867166,1275.245383766199
3137.6575213932388,3105.2707045795705,3181.4655078878404,1056.0477775701252,3336.149922836645,1891.186151562408,1677.2896572892446,835.3967375357024,2696.922052560333,2577.05458736929,2972.50614171509,1117.3769688228913,2113.020636191566,4087.7337135544,2880.4258913880417,758.6654273683548,2499.364858730456,1575.2148249478903,1168.00831724714,1330.2088311964917,1640.9708516038406,3226.1099986318923,2439.7191121633864,2715.0726034852605,1582.6478239223425,2067.24676464476,881.6713451731744,1532.0572979500175,1496.9667753619888,3892.408269981789,439.5721475307155,3406.3911306870823,1042.4208655762282,1191.7251729907614,1103.757750380638,1031.4417719937642,1174.537027310911,3649.105124561777,2269.083104009057,2793.551631704631,2840.514470901584,1428.855869028126,1252.637610149864,1198.5230420006162
3185.4275500097565,3201.6936107428337,3123.3846995211,1058.1562369538897,3397.1915212867,1959.1225996329688,1551.466614799886,653.0747420219373,2721.87714434482,2619.4610440912347,2970.9563348881115,1092.877931651546,2160.007246449959,4075.955257578147,2910.727272757936,716.681566667475,2491.109356756213,1546.7368857287129,1170.2617341313348,1286.1384846003775,1745.6114512579404,3293.778139996931,2417.0750521218206,2712.213052759094,1623.4442515657242,2093.434395193746,895.8217290630205,1526.7811743069624,1532.3168347336032,3979.8044374335104,453.4738426087199,3471.2611228474298,1014.1469772582108,1185.1248560673605,1111.6896041365203,1067.134647468108,1209.8811204871906,3440.0559557463307,2290.805995383786,2726.072206692208,2860.774689495904,1455.2249989904385,1145.4520250370265,1224.2691480281735
3236.591478279081,3268.6707161150343,3071.423993118898,1055.0476135817687,3463.7049518502336,2061.8124647459767,1391.670918235578,676.2175305658054,2749.0786028884186,2664.4613826597333,2965.527972101308,1067.3807760850302,2220.2989359496346,4064.015908165944,2944.063566695605,683.3186270897402,2488.438709293431,1513.9979798138131,1165.3990118071977,1254.997918413176,1846.957143557024,3376.892446100269,2414.153232382392,2712.5029517258386,1666.0671206872892,2115.321504744818,919.433421170743,1513.328887899076,1555.012533934687,4055.108926686708,491.0512464908954,3540.7536654640453,1004.900438720554,1177.9131456854025,1116.9504053600483,1108.6018464939234,1233.4665764371084,3398.3316262599337,2302.6852978707066,2662.594340493568,2876.537541618643,1488.1778445387604,1050.138878177254,1328.9075152619637
3291.4589137150806,3295.9798273060105,3038.5719658537096,1045.9888544452438,3534.9164115448207,2187.661524885678,1223.5630429667997,865.9080738047903,2779.199906052494,2711.086458798378,2951.241164848229,1040.5848316913025,2293.9544684800103,4052.094639718439,2980.453023787147,660.6129277483626,2490.2833539926105,1488.3258133115949,1152.4439915863652,1241.0835769113082,1943.7343921022205,3470.007685121397,2374.0357441442457,2716.185189423114,1712.249710956714,2135.9430088147788,949.346924578938,1492.269281223868,1572.91658983066,4113.330588728689,555.3164474427754,3612.636680736015,1011.8269918989888,1165.4093803433252,1123.9788914516728,1148.2593981052048,1246.8250634443657,3533.490453762182,2282.9176353071043,2603.4677798718344,2890.2051226839235,1534.0794332978803,973.900772317345,1477.2083559539087
3350.138977702978,3279.1113346731327,3033.083737951844,1031.4753142016125,3609.841318986432,2324.528149238049,1071.299848011089,1160.6403098792855,2812.7535643988213,2758.7807507886355,2926.8896889042594,1012.1636056807184,2378.73163400036,4040.394384814949,3019.8557279356096,649.2327046661599,2495.399718550744,1479.3759719727427,1131.9696506289938,1243.6319654152985,2034.8761672316416,3564.309401353472,2396.422649707792,2722.9000440775726,1762.2445820385587,2158.3059567607647,981.1627282202558,1465.2537185297554,1592.6709204689882,4152.48642031138,642.9100861826284,3679.40184987646,1026.0696572676263,1143.7814538922094,1135.6490730920646,1181.0754227137968,1253.5970391366536,3794.315691912824,2211.2431434655828,2550.30930072998,2904.272603268209,1597.0981315032282,919.5712232844536,1631.202398393221
3412.723920308604,3220.088810352603,3055.1357243602783,1012.7283457284744,3685.929780475391,2462.236012367202,951.1739177706054,1494.3818004451834,2850.098598591742,2807.509123407276,2895.94752018126,981.3908365089532,2469.5326431743374,4029.08856198637,3062.1660381853235,647.9848296687471,2502.647385453834,1493.733326003094,1105.4114242337096,1257.2363765913342,2120.069078432728,3649.473629225331,2407.721979134305,2732.0145211958134,1814.0585455334376,2184.087758435169,1010.6868732315368,1433.3587766099054,1617.2851632025709,4173.924540375981,745.6340277931133,3731.844158903808,1035.715820858495,1111.0457681868436,1206.9368266813542,1204.7810599086563,1259.5213022898272,4101.828621165297,2083.015290393161,2505.38926337214,2920.786996771937,1676.8016664240856,885.4889144463743,1758.7118212009218
3479.3016487367195,3127.3915772005294,3096.1146711244846,990.1262545326016,3754.682078857972,2594.372556117524,869.0399875478488,1811.004043406627,2891.392638721044,2857.6552877602635,2865.9514004421644,945.807667540406,2558.8170693616407,4018.292278190656,3107.37251638958,654.1465807052984,2511.277742041584,1534.7011647550808,1074.4873557964868,1274.2089294655805,2200.0982837706792,3716.733506130452,2390.656849315569,2742.9022740528494,1863.8489891356064,2212.6928671351075,1035.2224540177435,1394.5000493730818,1646.5074360549936,4181.555266327703,857.7282840218281,3758.642861246122,1029.8703956841175,1068.5470175090195,1226.854432273523,1219.4306701714097,1271.3544460333103,4380.560285842871,1911.330033339012,2470.571561644996,2941.902237511465,1767.4041895548828,866.6280723002847,1839.9862157034383
3549.8937550538126,3014.199522656432,3141.8985534090834,960.5717445691708,3799.4632552587336,2718.491425415313,821.3220460106079,2072.447413501836,2936.563965222729,2909.791742766163,2845.8861119933727,901.1713803489804,2638.26905530671,4007.74857944498,3155.788178163549,664.243707510697,2521.167920750119,1602.728610536114,1040.7798245991526,1287.711771049694,2277.002574424585,3761.3047320209753,2339.50436709204,2755.0900812106165,1906.7574786771845,2241.7162781577235,1053.91356515204,1344.139816242273,1678.8779360695155,4172.686305166271,981.1544639329844,3769.659294716348,1002.831285160934,1021.4210454831184,1242.720471978586,1226.5483669618686,1294.0004534705156,4578.921451235315,1719.5717565058956,2446.4615726540505,2970.200508488556,1859.506033960912,856.3905167323796,1870.0069208010275
3624.358286747404,2895.364559455793,3178.1386086820585,919.0321483520756,3801.481330099009,2834.556985512499,798.3035379804621,2260.136844525164,2985.408557475098,2964.462142543348,2842.7132571213792,844.4069571819646,2701.0568024213817,3994.60581569916,3208.141080760979,674.8991920248181,2532.676150678776,1695.4392291739337,1005.4482337717676,1294.253060209875,2353.7226580273523,3783.147724305436,2261.102353687197,2768.308444406052,1937.8791027309624,2268.8122130776924,1067.378651380748,1281.0175015367226,1713.2801762078684,4116.671096072447,1120.2205324028455,3762.7514196907887,957.1891061854216,976.9446675829706,1250.4844502647843,1228.227607460767,1341.2718107519356,4676.516986366242,1532.6134959255455,2431.510977709176,3007.523663837613,1943.3153383394872,848.452656174507,1856.1612409911124
3701.523660797721,2784.8362304423235,3194.630875701764,866.2484577759599,3749.635875252491,2942.7160306641786,788.0549325146781,2370.922127360035,3037.733739546691,3022.102581428785,2858.667229901768,776.9687458164663,2744.0119924199366,3968.568649787912,3265.52986305802,683.4632143366009,2546.2167514206217,1807.1295018719368,969.112035877692,1294.4319495107193,2432.3430256548872,3786.1831081518953,2169.4115131420654,2782.472070308834,1953.803785226933,2293.52136346535,1077.0455887668268,1211.07083716975,1749.5436968310937,3954.963444334011,1272.6001033353923,3745.8448550591993,904.2350419053796,941.8252395878872,1249.431615840116,1226.429590603611,1416.384358981371,4680.761347887701,1370.7021854458972,2421.429521978705,3053.5838749906447,2011.565370873244,838.1059330777916,1813.504370451328
3777.91979746338,2694.0751352194748,3187.48366117944,814.1565773922102,3646.1165797739295,3041.8340277709017,780.0466968836304,2410.433561010452,3093.3863022419905,3083.152726848946,2890.5761822859668,706.4053203509118,2768.5775605068725,3909.835226814888,3329.334975209231,688.2762415712662,2561.995909342003,1928.603960372857,931.9099124653033,1291.829372753083,2511.828206246316,3776.602774082904,2079.569804655516,2797.597490517091,1954.8110436752104,2316.879521819679,1084.4976862130711,1144.8410856933442,1788.732264259845,3646.169350604231,1427.143841275035,3728.1512416788337,860.6696286950817,920.05446066444,1242.6193901430406,1222.5341187107267,1522.2299507275502,4617.227914249506,1246.2244909014664,2409.8181127670423,3105.807601223604,2061.480577453246,822.8005671014794,1759.5378884213835
3847.947650830359,2630.427828909203,3158.862584529359,783.1436043201061,3505.36334969297,3129.534376530205,768.2306210555998,2386.9189766086133,3152.1848033333413,3148.1277475487964,2931.3108999831584,645.7988652201102,2779.537523602364,3796.099851270491,3400.5733405690444,688.6607643434509,2580.0581905344634,2048.4363526044967,893.6375870894894,1290.9279239952066,2588.480398107949,3761.004187017677,2003.614447993211,2813.770381917294,1946.642494564028,2338.7628568839496,1090.9877217757837,1091.85570758575,1832.96674035298,3208.5285215032363,1567.8667528193869,3715.6013767839327,842.8566638650145,912.1099754118948,1235.3927502464849,1217.1708184280187,1652.7185344148656,4518.29705380909,1162.6132989613898,2389.8033636504,3160.3008114094227,2095.508621146796,801.9996075875865,1710.3092858598009
3902.1255905620847,2595.629595414921,3115.3344231568035,794.2062537179481,3348.568957354871,3203.4849079937107,752.685535461844,2307.242216793272,3213.966495778805,3217.3841896449967,2972.582256929617,610.0719966315567,2782.2268380671417,3614.514737917025,3478.8068443195016,684.7655224035295,2600.4110945998177,2155.4849179181,853.920528772469,1294.7057722452,2660.172167150943,3744.9018904789305,1948.2691038033108,2831.232357150824,1939.9066829082808,2356.330600844466,1097.1792715673532,1056.694337354133,1884.382424883269,2714.5377114814864,1679.608535682476,3708.183618171463,861.2702711436318,915.4599938630628,1233.0767933009442,1210.3233412635218,1794.3521451292168,4413.569064717758,1115.2572824005842,2356.087305059351,3213.6194690406496,2120.10820594019,776.5776419318327,1679.3509869534896
3919.53840754521,2585.7799432219854,3066.3026491663622,860.541550717342,3197.3760983809143,3262.910380358383,738.804564972131,2175.591826457393,3278.7250330705992,3290.9822533972247,3006.6550758915128,610.246103139028,2780.211944498687,3368.6583261802407,3562.0507364114646,677.2923804637355,2623.036077146703,2241.158951664091,812.4335369837568,1302.3371147798312,2729.363580353502,3731.8955366428713,1915.428157561266,2850.4167455427746,1946.0759555098257,2365.5996489116105,1103.1223778016576,1038.5251098172214,1943.8923237159809,2254.6916029694494,1752.6925482705265,3701.025172623181,917.3608541887172,925.827395626221,1239.0720809555987,1201.5939068072707,1931.2522742049805,4323.903813136123,1094.2027266750374,2307.053035796196,3264.411442590267,2143.301703780988,747.9911681959895,1677.198982786247
3868.250309546344,2593.1053445220145,3022.2241727063856,982.3985276817434,3069.257000343592,3309.223788238827,734.4643309150933,1995.013649571221,3346.646887056628,3368.652865487662,3024.632229239668,649.1227665587073,2774.817802964372,3076.941839881378,3647.752384082199,667.1937970619565,2647.860399044825,2300.512145894664,769.0438587585063,1308.535442541119,2800.595858203043,3723.513714404621,1904.6202360867,2872.424676658723,1972.071919047146,2364.0110721814804,1108.3888102467167,1033.244275197164,2010.9492911911848,1902.823710470959,1784.7543309539471,3688.2289304821024,1003.6948746784516,938.5610749325195,1254.0588107525266,1190.460145252196,2049.940985201755,4259.419225707525,1088.0059093118966,2245.8726876935348,3313.595160487809,2172.567120752324,717.8160362056142,1708.5537850600465
3724.875937169095,2608.657182636204,2991.7797548500093,1147.463611563781,2974.8067458270816,3345.5679806574594,746.2505609248278,1770.8298208002388,3417.623034095774,3448.1307788007875,3015.710959599221,720.3130623857207,2766.165155775301,2765.877699777084,3733.15981226756,655.4240822124702,2674.76435210657,2332.5783506271,723.7615960084631,1305.7879121085844,2876.245462473996,3719.5727515470494,1914.917581491756,2899.926667210129,2016.9647736663587,2351.616998503588,1112.3420079398509,1036.1165251422387,2084.304080503017,1697.563502548238,1779.4217028858047,3695.463715918293,1106.609017643003,949.6990606930684,1276.557710894196,1176.4255029781425,2142.940718052614,4220.681502584653,1087.3503808507487,2179.478041027304,3363.370808986676,2212.990922133407,687.9845923155833,1769.3835227650427
3493.743807718579,2625.0236796389863,2979.406329940414,1335.5156114549022,2916.428782679628,3375.9082730937844,776.0359846085694,1513.756129876266,3489.783184041222,3522.267281128944,2955.6980469702303,810.3346911344906,2754.4658489964067,2462.494978714913,3814.6231458861535,642.7130413413163,2703.6004389409804,2340.5730958709723,676.632191702447,1287.9291163121225,2955.307580337683,3718.8095791449177,1944.96030372729,2935.3468932321384,2072.2424077746045,2330.8618475102253,1114.4701890789786,1043.6519543308816,2162.583382326008,1640.823948700545,1743.827200472064,3609.4026780624304,1209.8226183473837,956.5667407019108,1304.5157936154949,1159.0733888195878,2210.746889006373,4201.777748756667,1086.702386897312,2115.7506841319537,3415.283465438624,2265.2612951208166,660.59188198636,1847.2171732499464
3206.5743703344933,2638.62064229628,2985.2289282646266,1524.206994603572,2888.390955667694,3404.193078953529,819.673913105185,1240.8274115100128,3558.7587803358074,3579.2286808862564,2879.8973856401244,902.746783528549,2740.612774389081,2186.282984146268,3887.240286052804,629.3686078213232,2734.235533657311,2331.576654753784,627.7279248807743,1252.4843997227565,3034.613614275356,3719.554739104552,1991.8407057017764,2976.0097919387017,2124.9464233134186,2305.7842908090747,1114.3421929145948,1054.3489688090528,2244.2779453507774,1707.2993317598662,1686.9311768001226,3393.903304888848,1297.9072940490332,957.79822780695,1336.6574568486371,1138.079634620506,2261.24867405782,4193.887811646728,1083.953612737418,2060.9057626110166,3466.816949255659,2324.6829956954907,636.5433450406924,1924.189487521474
2908.8865234271034,2650.908290668652,3007.060617281067,1693.5058747542507,2878.7654255917405,3433.679869878456,868.6900150184945,973.8566033671968,3620.140496295022,3606.9765717413616,2777.171563183001,983.023740992307,2725.816361694516,1940.542265150349,3945.900506782048,615.620852804363,2766.6095348971617,2315.06370030632,577.2002313652304,1201.2852011316515,3110.586774472098,3720.275030339925,2050.0400150541973,2982.1899013081984,2162.2789648647963,2280.960430387987,1111.0089211643367,1067.940587036344,2327.73769082303,1857.5817308120727,1618.4483073043984,2995.8031653834287,1419.094388144898,952.8156729609572,1372.5242577342074,1113.2670157041664,2306.305603796309,4188.1246639121,1079.530347742772,2018.4621010298183,3509.594269760245,2382.543560019508,614.6093217469388,1981.606609542672
2644.9162687284315,2667.558891134208,3042.8069647891243,1828.165532242516,2873.2543763477343,3466.507953006854,913.9702414315232,754.7090722717087,3673.0829803811857,3598.184126384557,2658.45862618731,1042.4729357499448,2710.878925541876,1701.1614053564958,3987.053378073865,603.0644939798121,2800.767340873594,2300.7721475137314,525.2883038136363,1140.047594786608,3180.715113097185,3719.9006341802415,2111.5243516289315,2971.2708026695213,2176.714045423644,2260.293673181693,1102.850879797298,1083.6678759660476,2411.176861947367,2049.8033650594984,1547.7144199229883,2428.9814445148027,1453.2927228953467,941.4773452131658,1411.6537826476488,1084.6929247005587,2356.4026741718108,4176.980702368307,1075.896516045318,1989.217150088905,3533.276123291649,2429.6440612794668,592.1420885490313,2005.2396670125456
2446.4897457838097,2695.695798050467,3092.544626322884,1918.6410519273816,2859.6434573425627,3503.6774410756275,949.324398103071,561.5182380045242,3720.428133760255,3552.6354294109847,2533.9313093688834,1079.8247831828887,2697.2838625013924,1526.7977034841124,4009.923570558102,595.8895371880178,2836.8548576725825,2296.555729986011,472.2368995615684,1077.0346899056342,3244.285124979823,3717.930414616123,2167.591532024905,2851.03434973598,2170.7871016321587,2246.1428683252807,1088.6085648820963,1099.4372057930316,2492.20213082064,2248.0628168349663,1482.8274223528172,1771.737089796333,1462.95686299132,925.0439843621996,1452.9671936192203,1052.6621079085444,2415.774540178815,4154.792105451628,1077.74012324135,1971.4200697431424,3532.5169903971337,2460.484989317375,566.6441776690358,1989.517247203509
2327.450052243059,2740.5012940581028,3159.537656845879,1960.6269120224308,2830.800479940316,3545.3369871132136,973.3578785908288,430.4918455311242,3765.252626363015,3476.839228821029,2410.461941406752,1100.4780471569943,2691.180406486266,1473.4354754398014,4016.624566859232,599.5990097221429,2875.073388368626,2306.289459239228,418.2011273594092,1020.967119374922,3302.384937271355,3714.364090979362,2211.47923504019,2582.7232233685595,2157.484997447599,2239.1595551755013,1068.5126455188288,1113.1489635902951,2567.3160042577406,2427.643224479109,1430.186506291841,1129.6132295819714,1460.6109379911777,908.3082442120424,1494.5515800185476,1017.6662796330228,2480.807354355877,4118.006272451708,1092.1058613062137,1961.2619742443844,3510.399282196213,2476.1210815605946,537.1049803724652,1938.5469349045604
2283.552976982072,2802.543214287617,3246.661138850872,1953.6764613043724,2784.73250103013,3591.0662391982155,989.4555608915124,363.6756782347597,3808.005637613461,3381.64602419254,2291.153131327389,1114.2946217437036,2704.468075114078,1605.3986045130996,4011.3591608035513,617.7276666265168,2915.5698555420904,2328.641829990433,363.8088044243493,978.94979891161,3357.567671014578,3709.535400001326,2239.666549670336,2181.140716785454,2153.117187561415,2238.639600958105,1044.3327985641397,1124.931363891778,2632.4744558456027,2576.806312287569,1394.2492167444789,597.9894396587433,1460.9652005650305,900.3619311058665,1533.4657411851158,980.2872577535676,2542.495761828861,4065.425162786493,1126.140244319749,1953.6411622943967,3476.196134492494,2484.11526374222,504.6871338335643,1863.694293953196
2297.021124277222,2876.9439031351626,3346.4449075222174,1900.2658072103104,2722.4717355871803,3640.0503660524846,1004.3814606994174,352.94243269518734,3846.512154649157,3279.319585169,2176.322526826208,1132.797223717254,2748.11883603971,1924.315840985176,3999.184434084964,649.6490589024427,2958.3544943797124,2357.8733686404626,312.23649154281225,955.019264230864,3413.26568212014,3703.9196350195234,2251.008806446008,1709.55478004629,2167.9764460178662,2243.112806922033,1018.5492277042156,1137.722702309364,2684.495164352076,2695.3945530724345,1377.6053920394631,238.86030035908905,1475.9716949461013,912.0277951392768,1565.6979646342854,941.035447755005,2590.991716233249,3998.2344216378433,1182.592502884992,1942.8729324806543,3440.607595443523,2495.1405037941254,472.6018211081057,1779.1210764306811
2343.8144421387933,2954.709655929347,3435.074402320848,1806.391912044166,2645.967204084919,3691.2910270721873,1025.9841511826446,383.21513398428624,3877.6641683358384,3181.21093841908,2064.8760360813963,1166.2822740965817,2824.505412079501,2363.9354567104047,3984.8162234412857,691.0173407573855,3003.398283578337,2386.30685417066,320.91704145447875,949.281257000904,3472.6226374013,3697.9707844497007,2244.9951813383286,1249.8768925103027,2201.912946804584,2251.0133099461905,993.3711409052672,1155.6044369615383,2721.922975828508,2791.0824253990595,1381.0932146438254,72.59237821042666,1511.768097796517,951.4769281038298,1586.649754222048,900.1826273986353,2613.523929220073,3919.654608135013,1257.262897076183,1923.6246002231485,3411.61994504484,2517.5460937904804,445.3640267707369,1697.0380233591386
