0,1,2,3,4,5,6,7,8,9,10,11,12,13,14,15,16,17,18,19,20,21,22,23,24,25,26,27,28,29,30,31,32,33,34,35,36,37,38,39,40,41,42,43
4334.216717413159,1108.0882742977335,2223.627590475033,3906.256056458302,1415.407049728527,682.1222203686493,2726.1672639584585,775.6806010506459,2138.193627337309,1352.3652615044166,1463.5864238044978,2889.867017021084,5465.659701727773,989.2796255727072,2095.918136340564,2595.65720428379,3143.501265804758,2713.206139591905,1782.5093274710298,1568.507120059463,2753.6088799404088,1206.6044036657763,3851.178472562801,3165.8872231880728,2653.854548635179,1014.7807402046684,3052.8964004593777,1735.158298299687,2047.9505759635967,3568.049327780972,3619.060218517026,2533.9012744954134,3170.9814951777794,3484.486469427605,1250.4296103099562,4402.746055165741,2330.27627788588,1530.934281357651,2839.323377021838,1641.752925343348,1589.3406784641395,3076.553178103998,3094.1764837213805,3365.133225479455
4267.277794801003,1039.7363854614252,2200.955804734124,3923.430996201069,1424.1631623831577,747.6702462590233,2756.466576223553,858.7611163539539,2032.5548975075333,1287.5010717631062,1437.1539526901597,2958.869865337114,5487.1810707787645,952.9024536913904,2091.8352383992456,2549.7700168730203,3195.0013205660634,2640.263429096649,1740.9114597100545,1580.0415267640265,2740.2113001840908,1165.3922098101943,3825.053729174436,3153.7452789894533,2619.113660053388,1006.2152554556158,3126.21853784411,2218.6759981961814,2046.226393776717,3656.826670214577,3587.411525478283,2502.9347173016804,3244.1414998612627,3486.758433201776,1337.8922319325218,4576.163376180548,2334.4319508383774,1519.9196089441612,3152.278123740929,1559.5695493705527,1629.9116406369053,3086.2057476408604,3254.22830147996,3376.0130522198288
4216.89890664339,1002.0270120135842,2193.3159114077425,3939.546936055957,1430.5285870455818,822.3081915913519,2768.165716323279,949.8607473963564,1961.0459520917764,1247.2401351634192,1422.681072574532,3135.2169874901624,5378.002670300776,929.4073519281574,2091.9650290463046,2492.6185561423576,3249.734657143857,2583.230346143171,1674.6614245138012,1583.910841687148,2732.228408970751,1122.4731040871616,3777.802455057023,3144.0193363417307,2592.4560485907978,1000.6813965091944,3183.9611667804,2658.0228941545256,2043.3189545257133,3746.78891044967,3563.62448366556,2476.6552465820323,3316.980532523844,3493.177058142864,1434.85623732446,4692.714270753599,2340.4558754263003,1506.1217177007147,3372.1738804276847,1509.8962218089607,1669.6916348667914,3044.436668070964,3398.96481535097,3389.038465595508
4114.8027628340005,988.3468278539436,2204.15554155933,3954.69043217626,1434.224559257536,897.0527210381135,2807.415566799184,1041.6873548125836,1928.074446485842,1235.139867783318,1421.210301936018,3385.566073699506,5209.715652647532,921.01322821207,2094.467518452884,2435.423697255388,3307.7092903522084,2544.556367470554,1596.717135126779,1583.0387071204796,2729.737194987384,1078.1309452499186,3702.702902670528,3136.443001369082,2575.3936857002413,996.969429434944,3221.499669272386,3098.238725827791,2038.022630798301,3831.706343703338,3532.153267426602,2454.1385006105493,3392.898180467507,3501.144190741654,1538.7319782134214,4746.390119467747,2348.8982539778785,1489.530916269339,3486.8831281187704,1493.593814028614,1707.2682813214233,2973.1812045234283,3524.420787179088,3403.8513752016715
3949.351956910595,988.9772820911992,2232.97131690939,3960.39683624108,1434.9430749185,965.6114331684632,2851.2993933682887,1126.1650445985224,1929.929145914426,1247.723840764705,1432.63993788605,3716.6830477138537,5042.385182366648,926.0873278174774,2098.342603032446,2385.960948170787,3369.178137674148,2522.290524952487,1519.900610895003,1579.8814872581383,2734.196298698026,1032.687255996079,3595.877212626373,3130.8422183796506,2567.640332821442,992.3171711438138,3238.3307440509125,3441.750315222353,2029.2343444838025,3904.394010783161,3471.0973364801903,2435.052757477757,3474.646801854983,3506.406499152656,1649.6109803292925,4739.1385630855175,2360.495154160887,1470.1908379024912,3503.535054102413,1504.69253693358,1574.0314163822711,2893.479297723157,3630.7458989644174,3420.0001165140466
3734.778668445612,994.0144083108172,2276.826650107821,3916.8407263947583,1432.471830038662,1024.8255335037898,2899.624141018028,1195.2368623110278,1957.5388359196595,1277.0603704954965,1455.46215212859,3978.223819861165,4914.788456756339,940.4911268183118,2103.4245518865087,2395.3416532065703,3434.5825629953733,2511.144957107523,1453.3980956689677,1576.0184232789634,2747.2083082753074,986.4266934997818,3459.417072393376,3127.210108363409,2567.6096891606603,983.8559544011928,3237.733712079721,3660.942839131599,2016.827262313184,3959.215285214588,3362.879696937774,2419.70503747235,3563.749342557245,3501.445562286205,1765.0295200007345,4673.489685385585,2375.676160593317,1448.1907182459838,3444.465576924097,1533.264381414731,1601.7127377459817,2821.056254774146,3719.452842586533,3437.453378113815
3506.269086077245,995.5329144414133,2331.3943256262205,3752.847855467229,1426.75731456428,1074.3089452113013,2952.066767028614,1241.741705127524,2000.7627828390816,1313.7356420821145,1487.458610372557,4179.78323111288,4842.59547443088,959.231161126996,2110.339784079123,2332.019831839376,3504.265379191818,2504.422005150765,1401.3894398082566,1572.0553014188854,2768.8831704456607,939.5316265149596,3391.1397752159205,3125.6830842186937,2573.092282231988,969.8193728719596,3225.391411793475,3752.8929707144366,2002.4891137713712,3993.883495572618,3204.0812709719607,2408.68816223222,3659.756569328847,3475.7830104982486,1876.4961649735528,4550.865973738761,2395.469632274717,1423.665708433616,3339.58674552104,1568.5544544132676,1625.1377658214442,2764.715321033878,3791.477305663236,3456.647327042858
3304.5049709205305,988.705102351866,2391.6062980795778,3415.335727773002,1418.5187585414178,1115.5803863695478,3008.5046824792435,1260.8558712072622,2052.366153982559,1349.3268694445524,1526.7847126939955,4304.348720110669,4822.493003106234,977.780865340537,2120.3280519341074,2203.76675926584,3578.330940526028,2495.67342230998,1363.3887547064835,1567.803970031143,2797.4928385728617,892.0528482376467,3224.499390096153,3126.400514129776,2581.908031298294,949.917723003485,3207.670005796616,3736.763073692569,1989.676989197419,4009.385950268755,3008.159635469545,2402.4670875927004,3759.125357475892,3418.429073818562,1972.02864050588,4375.678350775948,2424.4070129339498,1396.8107383461074,3218.386955913309,1601.50346154443,1644.3470826132004,2726.8134023092875,3847.242018664917,3478.126844340023
3161.679490582414,971.9407164448093,2452.170366252963,2917.156989051436,1411.0706317721515,1151.0761761597057,3069.2624508337567,1251.2752181747758,2109.838639224759,1377.9578125276355,1572.6308040564154,4354.34524495593,4839.403290350765,992.8663177332526,2134.617143947997,1979.0212003034069,3656.6484619738926,2479.402120095339,1335.652829109666,1562.616413985028,2830.219670407544,843.9778832455331,3052.391704190618,3129.336216063012,2592.408482064008,925.0889538030492,3190.136914675608,3645.4739610243632,1983.377165582894,4006.9818872472697,2800.2603074393846,2401.109569441756,3855.0706745956313,3321.5918256427794,2041.4100024965428,4158.701263951484,2470.9202518552493,1367.1033162840656,3103.974213821384,1626.272508895673,1659.699144114435,2704.8824071697586,3887.5933718497554,3502.15847801408
3093.6334709007133,946.2442990683448,2508.109003491538,2334.118793298735,1410.9538091207946,1183.2765749693783,3135.2232295319577,1215.2267662898698,2174.872756674677,1396.8587908045236,1624.7854179018022,4346.383028812152,4874.092819786429,1005.6016809154974,2153.702178042261,1670.188338010065,3738.937680352496,2447.8559035558555,1313.0141889765227,1551.2043171951666,2864.202816621434,795.3306086424527,2880.9949998799907,3134.278907365478,2603.700335287416,896.9236450459796,3176.64719998703,3515.825574012956,1991.254493948462,3983.7906935119,2607.3363398253964,2404.2488526456623,3939.453123156002,3185.024786678414,2079.963734235652,3916.6865248366,2541.8581083635754,1331.2570043054172,3010.2055504347472,1640.531876052965,1671.6590317797857,2693.8005763061133,3914.436172468625,3528.613003380792
3098.763394207517,914.1236254034336,2555.544087610059,1767.8628074300834,1424.721873894487,1214.0693794207411,3207.365820675888,1157.98942171172,2364.465605298562,1406.0487473830572,1681.956217582882,4303.790997624514,4909.235629876421,1028.4368823413463,2177.279992196988,1328.6848714215455,3824.5530114783687,2383.7159935324003,1290.504685078812,1543.4920671057423,2897.3769553279426,746.1915519216006,2714.9335042772527,3141.0195324487395,2615.5606559476464,867.0914266562916,3169.072007957759,3380.300401450215,2023.404143255442,3932.61363565744,2508.269204763804,2411.223269044177,4005.634040824032,3018.2969678602885,2089.495099182091,3669.463031115006,2636.8268042350423,1283.0767679058663,2941.74188627824,1644.6039150871336,1680.6166093711468,2687.919462652392,3930.7463186218697,3557.217714243029
3162.2816297685044,878.4788221678507,2592.6002494042505,1307.3424092894677,1454.5696926575497,1244.4526401187595,3285.971783020645,1087.419555256914,2452.996016967737,1407.3821757503451,1740.0643910303477,4249.5620838919895,4932.992185791694,1083.9116886376005,2204.7496379879926,1019.1799465425196,3911.3733389439058,2262.231909108962,1264.3880008376286,1533.0810299834195,2928.8418189250124,696.6525732276236,2557.9899726170097,3149.47974765284,2628.2148895155324,836.9269012815619,3167.5513438235707,3261.851493914293,2087.322138839182,3848.2977566505615,2371.923536323318,2421.287218079736,4050.5392939627486,2837.909319378464,2076.9048065628053,3297.7268758180726,2748.198912867647,1217.6147371748284,2896.1459750942204,1640.1887632433522,1686.855315534188,2682.632009548959,3940.1005423468646,3587.874749318394
3263.03352161176,841.7925153025049,2619.836836638042,1004.54739107601,1496.6986981320651,1274.5634948152738,3370.636764875784,1013.0089097010846,2559.93831627229,1403.3917431213415,1792.2095353165,4201.3988647568585,4940.067534875665,1187.214324358593,2235.5221659040344,795.0974315464355,3994.623511173379,2070.0100960922746,1232.630954912418,1519.866311070493,2958.771199672922,646.7655490173984,2413.240238639027,3159.620717642465,2642.233911759248,807.1813971391744,3171.0555540011487,3172.0796918451742,2182.1714158039103,3734.383685064396,2237.656559873819,2433.79020140936,4075.1703818278006,2660.966599232679,2051.652716577953,3100.1814546575124,2865.0635080320258,1135.383724877368,2866.9274552887027,1629.371257398882,1690.5923442476694,2603.775438269181,3946.017468172751,3620.635254389179
3380.031163819513,880.5969250776238,2640.0391877922625,868.0035922014308,1542.1235459669977,1303.895844947038,3460.9033885269546,944.7485211910916,2685.1070862003307,1396.4017535227742,1830.7011364944656,4169.468696509417,4930.830405656665,1330.021264539317,2269.0186331420587,684.6904328223968,4067.4845264065807,1820.5150491008983,1194.9406398056483,1503.9360527810106,2988.0771109724674,596.4887763294075,2282.840361525962,3171.345552596546,2658.444796056235,777.9565975355517,3178.0291461994,3112.492230898739,2297.7860677033896,3603.082433197757,2087.111675434865,2448.271607228271,4083.768933455523,2499.802549162717,2023.2215522337376,2941.9276902838383,2977.427110549415,1042.3604555780262,2846.515147038828,1614.0450622103206,1691.983550997406,2594.601854950812,3951.378349229471,3655.4706765047977
3496.990701754842,854.5762009999855,2657.146910018768,870.4389038866268,1578.04236839396,1331.5977210977449,3556.13824464408,892.1618719812539,2822.9781501658263,1388.0634638100832,1849.8632716745287,4156.5946406328185,4909.264205353672,1482.0359709799088,2304.726181734298,689.4575690391994,4123.478867875506,1549.7640885262665,1152.3585364891044,1485.4487774906656,3018.0918971403075,545.7030905860058,2167.5826105204646,3184.551226447642,2677.5757214488235,748.850336383407,3186.940587265076,3077.572519774118,2417.92284039373,3467.5207820127416,1924.8296063952075,2464.493375455586,4082.254845294461,2359.6910733211566,1999.257213175408,2824.13016200946,3079.0138873150854,947.033457273024,2828.4357539494404,1595.6475150203437,1691.0823681446996,2583.092331680051,3958.087800595714,3692.335080773301
3604.415033232233,859.5615328356605,2673.810179026933,964.0303235823042,1589.7060556139245,1356.7855408112432,3654.1688270253007,863.054627821022,2961.076141368886,1379.2020481504935,1848.1206705465247,4160.084185529283,4880.620780812332,1604.452742115833,2342.319700554436,791.1454495636419,4158.805876221491,1300.1999889768915,1106.5366102989642,1464.5778328583551,3050.351810604204,499.09256328655033,2066.0573957152947,3199.2814597041624,2699.887121098196,719.9820577074963,3192.671820709488,3058.344325475774,2524.882732734734,3331.591325373761,1774.781659525033,2482.438074013913,4076.589837753538,2239.4684806721743,1984.5436447021827,2740.262874215177,3168.240036044472,857.2419611107566,2808.4949487326385,1575.0814940822047,1687.8148521909864,2570.687911438311,3967.014583921102,3731.454648503038
3699.491195388049,908.6438741104594,2688.9239128776003,1096.7011587865975,1564.287309720169,1378.80283301555,3750.010196296428,862.100924557355,3082.391365782784,1369.8869822909292,1828.9831524441745,4174.245230009783,4849.80365689252,1663.94404966072,2381.6884151668137,961.3157873188336,4173.374102265325,1105.5849731501803,1059.0186918246477,1441.5691877706558,3086.3019511565217,478.9290745355331,1974.5436321496672,3215.850191660636,2725.134042957426,694.784732087058,3176.131260473089,3045.5892084195,2603.8469123113937,3188.472693047927,1664.9373114232508,2502.2420475163435,4071.535725459298,2133.7994575210987,1980.8108173910427,2679.007502773293,3247.536575837955,778.0904876486736,2785.081389646893,1552.7417804667675,1682.0157837944205,2559.2568005484604,3978.160849336739,3773.722988031588
3784.483677589379,997.6639035533522,2697.6564118835167,1224.8767387057624,1496.4717064027366,1397.350613297784,3836.5476115775327,890.0908600767846,3171.262389381668,1359.647395684392,1800.8084749253394,4192.772778845655,4820.706777858916,1642.618839070991,2422.876388475249,1169.709615117167,4170.439704232214,982.5906323740104,1010.2899148797744,1416.748219814744,3126.8809221304327,526.5686749712777,1888.6093933393688,3234.796971302676,2752.751698113205,682.3565019715074,3103.20527909609,3032.153988161154,2646.023513018395,3112.1234951966376,1613.4903998591049,2524.074007796917,4070.0216981682606,2035.6957472863828,1987.3257947807144,2627.8706122915564,3322.026517566027,712.3105671455758,2758.7526846209453,1528.669275377882,1673.4726233322258,2550.4984121546013,3990.960958110532,3818.7726265476576
3864.150846102139,1105.5391578061522,2693.997514018819,1320.544618883793,1391.9015280617568,1412.464112012669,3907.017685621489,944.02694348862,3218.74318893116,1347.7544897236585,1775.022146647106,4210.482229925552,4795.797197210831,1543.4821994716506,2466.008785413718,1377.3699041980176,4155.333731295474,929.7619004940208,958.9652277810562,1391.046874621503,3172.284257341613,707.8684529524935,1805.1069001683263,3256.7673628634448,2782.1342168448605,695.016138227129,2946.0089810911545,3013.928569860738,2650.0587574110123,2922.782093321136,1622.2760593136238,2548.072946462692,4073.106309895851,1938.4455227649887,2001.961151844264,2575.6999459359185,3398.348808397548,664.4888104474612,2731.3064507877125,1502.7763196085366,1661.9590600824888,2545.38291881176,4004.605645427608,3864.669296085238
3942.291447048257,1204.4328250720014,2673.644044596316,1372.5457634698828,1265.3403317388031,1424.3784285348042,3956.173909884731,1017.9328347332962,3224.699986520916,1333.4957161892455,1763.2244294782492,4224.1914536864015,4775.798103432338,1389.7613215050324,2511.235908954647,1591.8952848211402,4133.71523180168,931.8459466053096,904.0540337837348,1367.942880546807,3222.080616770496,926.0445732231932,1722.7729438541887,3282.4684142547694,2812.8890109236977,741.4771854897172,2705.176107516201,2989.5016097942694,2621.581665346942,2681.140200591535,1677.732263889523,2574.753283186069,4080.3701916119935,1836.49627402194,2022.244713219884,2513.8329784482635,3482.5055997283284,645.5529336075788,2704.6827716926623,1474.9442120271517,1647.3155310839488,2544.036089622344,4018.311094839878,3907.441974000974
4018.7624632748975,1271.9642032740871,2635.6356873673926,1383.4935695951378,1134.9908462683202,1433.37287010153,3976.7680315468224,1104.7601354763915,3196.534404317504,1316.3660786422254,1774.4405407828915,4230.56578693699,4759.8602149279695,1216.7842354537895,2558.6944916429416,1787.8566337776465,4109.057416157039,966.6793907846376,850.1067989293808,1354.7011981567875,3275.602901846538,1121.3985003207576,1641.5359177871378,3312.555549324984,2844.8970140019924,821.4631913744256,2410.3868603952646,2959.478085169037,2570.734553864776,2379.520525720209,1757.2336410735372,2606.023730860007,4090.517038302122,1725.372475276466,2046.0525131302809,2436.584315249205,3576.376918536009,671.2590843980809,2680.2686453749848,1445.0005126957276,1629.5260803663502,2546.0402072162938,4031.489580950928,3941.889959081901
4089.2268688734976,1300.2641646589464,2582.454567761165,1364.4193890665078,1016.5743186772428,1439.6821145786405,3954.590353033332,1201.8928171680973,3145.953870913393,1296.163336249098,1813.962333233325,4219.734535685542,4746.159456321146,1060.020234828571,2608.497890740997,1960.0576472490293,4139.486267029319,1012.0356195791616,808.5494148943988,1359.668204030056,3332.4587462373265,1197.9415430578492,1561.6058235595408,3347.400538947016,2878.2820140241565,925.799012432892,2104.61160437542,2926.259584165104,2508.36807873946,2036.59756213512,1837.725508968364,2640.5418983107083,4101.597964216297,1601.8575221858007,2071.9170975663374,2341.486341517042,3675.713654966074,755.3916977746053,2658.929741310113,1412.7638876967578,1608.6957367297105,2550.8104683615834,4043.8148179632335,3963.498500079814
4147.601158363224,1298.005795214416,2519.001364183905,1329.2507634268554,919.6003298645596,1443.4719958447872,3870.538719812729,1319.6724805574818,3085.4458070080136,1272.96772861915,1884.166324458591,4174.1438242603335,4732.608312581758,945.1781536447492,2660.792712868789,2107.964763609718,4055.557189562372,1050.570930653775,792.4117220226667,1387.0489728311777,3393.7289352627536,1110.4008936433947,1482.7364085959314,3387.0060749442123,2913.3700559810864,1040.5669560881408,1826.6119509548296,2893.6559091041654,2442.650362778052,1692.2772454488877,1903.1961587955136,2689.7904477918014,4110.481872206435,1466.5461875953654,2099.0964541991107,2229.332812481045,3771.662932400704,903.3596553957584,2641.3437750070766,1378.1433864873843,1584.973717113823,2557.808043260082,4055.201978580061,3958.870486941887
4189.010196956084,1284.9290955965157,2451.0689364653344,1290.5641606234374,846.4443147479556,1444.838350379873,3710.0700230117154,1580.173229050827,3025.560487922162,1247.0267638230184,1985.7796033617053,4080.027143750696,4717.455502895133,883.5283622119787,2715.8979194325448,2234.190173245214,3853.781032040664,1072.113065089983,809.8394053968793,1433.879448690248,3464.169428368442,878.0402248235771,1401.5147132775442,3431.169893165603,2950.487634739685,1151.891359278895,1599.6390773808832,2865.80432766009,2377.3736449581475,1390.446122892382,1948.286100440748,2743.9023996580163,4112.563133360946,1327.4983479181456,2127.5268872463657,2104.263641463289,3854.496303879114,1109.2035421135656,2628.109405195134,1341.1904761093424,1558.5034916969923,2566.600189068128,4065.7359157573856,3951.529611651757
4211.610554695907,1282.6432686213848,2383.9208488452723,1257.0896186164446,793.6127491705945,1443.8068924497647,3471.297031452339,1801.08502278792,2973.424248492074,1218.6712947187398,2118.052460508323,3939.4508468204735,4699.639421480555,872.4242307543448,2775.298205220941,2342.854901298888,3489.5420018213817,1073.5570843724363,861.0643782656771,1491.8040801976626,3550.4895866357047,563.6853628890779,1305.862710720833,3479.751499149609,2989.7242307944066,1249.7300797369976,1428.4227827437762,2845.9643462218023,2312.706710891724,1163.4702867708309,1977.363858196769,2791.915889858677,4101.89475789834,1199.8349748181367,2157.66421049102,1973.510353146415,3917.14553396348,1356.1040916578204,2619.6149077042487,1302.1080403581177,1529.8107069775142,2576.906304349884,4075.327290397544,3932.5452993752606
4216.920731912146,1306.486891534248,2321.4110517908057,1232.8752974230838,754.1272806381367,1440.3201009682375,3166.339697007961,2063.1763874080666,2932.4269856135816,1188.3046645315335,2278.363908994491,3770.492017946379,4678.8663316183765,899.3900597662807,2843.955524643657,2437.725194691058,2980.316210557477,1057.200369034615,939.1019544849526,1551.7235720500094,3651.0316460018576,242.98651171486904,1176.3773521603166,3532.8861769386594,3031.015045541644,1330.3572354684334,1303.1496782046902,2835.770328306788,2248.083410115723,1024.2121557488972,1999.9426957290195,2821.272421634912,4070.816144045928,1100.1882027531617,2190.173310370089,1845.7492094921192,3957.1030735307486,1619.987464751005,2615.8410517548145,1261.212190848234,1501.1089360405513,2588.662249909556,4082.3470414939575,3906.083174628837
4208.998620986251,1361.4904700608672,2265.722893013269,1217.7942600409533,720.0644512571616,1434.2554032019077,2817.1948726752635,2332.1958153989053,2902.7762079522586,1156.367535684517,2461.648390769283,3598.832731117915,4655.4897271627,947.6290064681604,2930.371703955664,2521.124709118488,2399.9324292735605,1028.433690196622,1033.1890173939566,1606.8960501291897,3745.975291363415,-21.218209223016856,1000.60974660886,3591.0608983033726,3074.4676127846647,1396.9413253383177,1207.0878169817825,2835.06613372257,2185.002930305134,966.0140877044504,2024.6357525331896,2824.850697116626,4008.427841526169,1040.4033198945417,2225.5721887177287,1728.1346329634664,3976.4402271081617,1875.4401909258977,2616.319461270537,1218.8140731985884,1477.0586615329528,2601.9742478222915,4081.543863225472,3876.465412865603
4193.065775069053,1443.230770720484,2217.523656413084,1208.880363405547,685.14004496706,1425.4657001092849,2449.417640499961,2568.104299422428,2882.5234463974216,1123.2495918484933,2658.179855453885,3448.2802293178115,4630.287746969654,1001.0420228092084,3041.459766162311,2593.800609368288,1843.2938969025536,1042.6628240209889,1133.3331523601553,1652.8741009276064,3801.309779697759,-193.0468349094636,786.0538379540567,3655.129525750616,3120.4322269035533,1457.8400857199183,1123.8727414436858,2842.261923697335,2084.4624462700617,968.2899701150934,2054.921052933406,2804.568185001358,3898.18977501629,1024.0353230748217,2264.018441734171,1623.7957153593202,3980.474520780735,2101.8192112265406,2620.450041346888,1175.0900613251904,1462.680550114021,2616.9410145304137,4063.8105497661327,3847.260036291537
4174.142862512451,1541.7445667324769,2176.343625063868,1201.9350152489078,647.8273194040707,1413.777242399714,2086.0114590399044,2739.900687791272,2868.7167370325506,1089.247421110878,2851.446057557391,3334.1701925375737,4604.188418690044,1047.5916794010195,3177.117049084732,2655.1107459248065,1391.167481173859,1006.556729892612,1233.120957473886,1686.5313049932734,3784.46506617077,-265.8151053746169,558.8758795055787,3726.1993346911368,3169.270173884524,1523.1688481041783,1042.181998118161,2855.0423091134107,2028.222491123251,1004.5139002968652,2088.667959463358,2770.0519525931886,3752.505407578836,1046.283789620255,2339.836080182115,1531.8680311053283,3975.871526382828,2287.264432996571,2627.8877348678247,1130.097306498294,1459.528501239044,2633.5994078015733,4018.7338099242434,3820.781865463184
4156.072208058256,1645.575068244781,2141.082054891745,1192.9704889594989,613.4413962134579,1399.0090549785932,1742.9943312507537,2833.800358988996,2858.4343095523272,1054.5690691182867,3020.98627782258,3261.091617548134,4578.083021530258,1080.683735922276,3330.0236309524976,2703.4441414344283,1088.8243494795563,973.0335680710864,1329.298758326474,1706.1881167550998,3679.657453844099,-255.1197233488865,352.8770788421132,3804.89610702712,3221.3915703362554,1600.9390097507835,957.6372783568664,2871.094615914756,1994.445450451196,1049.6455471149382,2120.7196000717367,2734.8437396426043,3493.007836969497,1096.4368885204262,2391.7707159209986,1450.1502166552382,3968.876929513475,2429.614643616429,2638.5150696884834,1084.8044123017305,1463.6333380053088,2653.8603580110203,3937.315454284832,3798.0158296415375
4141.075894896756,1744.9073382312165,2110.5246197801703,1179.201949037541,592.8447687664159,1381.093914890123,1428.7119517753126,2854.0065777555064,2849.5109991093327,1019.300512376778,3149.4770761112904,3224.44057664697,4552.792475925164,1098.8285352036055,3489.2866767638625,2736.9606279175523,941.1904576687034,943.5552387258616,1420.055037350723,1712.7684883404042,3495.2421961082346,-186.9230598256322,197.42566445712555,3889.937797270798,3277.465319800479,1694.0479698080585,872.4754248109268,2888.589873949607,1990.991378347668,1085.0817542739378,2146.392688728291,2712.567496179149,3162.066972586482,1161.3765024644665,2469.853691772996,1377.8555114538417,3964.115161518224,2534.282415203162,2652.163060620976,1044.221742316829,1466.5837955818106,2686.277096509767,3813.733933988143,3778.85972931841
4129.274088143553,1833.9040906791645,2083.7371901422302,1159.4607499478657,598.5387690504019,1360.1515274043816,1148.0637091302729,2818.060047053431,2840.829053551571,983.3719579754422,3228.4042880520187,3214.031038862964,4528.990931303746,1104.2221584167548,3642.924245534836,2754.484956887908,920.7899690943302,917.7563734394978,1504.475883085216,1710.6384195069409,3261.5492709681776,-85.78639336394417,109.27610768592469,3977.152821733445,3338.165391764289,1798.8083886763966,793.6294457872011,2905.914243895195,2022.360160077896,1100.6895412899928,2163.770324175037,2713.473288232392,2791.1177085694617,1228.8875240144598,2585.776241202092,1316.1986456259374,3964.100064255072,2610.309466420972,2668.5129210678524,1020.2537154792942,1458.2390043597086,2746.331226676127,3647.3084180832575,3762.5338059667497
4116.8186175506735,1911.326629199105,2060.239452454978,1134.0252325960128,639.4483954637958,1336.353146872128,908.1793178033048,2749.6880863910847,2832.21233423318,946.5849586243166,3259.4522076775465,3217.948951470584,4507.070323278198,1101.001069217515,3775.537617062011,2756.303197220896,982.2583221071832,894.0248826054542,1583.1147566634304,1706.4268752900955,3021.339510178568,32.201577329061365,90.02679011427222,4060.014261745549,3403.782195809265,1905.5947433133929,729.9118180860735,2920.0656259340626,2088.061715445949,1094.3273374694963,2173.9783378061416,2741.132541320222,2427.2544131565123,1289.9361001857333,2739.280046431109,1267.122270372002,3969.370860228344,2666.736520059428,2687.185222760658,1029.831911395732,1429.4897007695074,2846.803858319752,3444.063233965172,3748.0099224665983
4093.345132129869,1978.6878124060177,2039.9368533665136,1104.032554540613,715.5871734415507,1309.7905060258768,719.7411122735939,2671.917361706136,2824.1132230156013,908.7047908635636,3252.398131365341,3225.642846537494,4487.114442388192,1093.6561889627374,3864.783112252481,2744.548735454163,1077.4313037559275,870.2010903824864,1658.270328845057,1706.337469342713,2817.0490045550587,160.2879806099104,128.66790343400362,4131.364323263376,3474.273960759435,2001.7373842441573,689.2642671358262,2925.4532149961524,2182.658854207584,1069.6024621513743,2180.1560557051885,2790.5979647286326,2116.174870843868,1339.6005201962012,2918.206851957184,1231.681986535701,3979.0337593757145,2710.783856093672,2707.8384497413467,1088.3716954549564,1375.086038497126,2987.8965440524807,3216.4262273850973,3734.354019815812
4042.860332289539,2037.3483624560167,2022.94187194654,1070.844671180766,816.4824248206589,1280.57541887044,592.8722077825912,2602.3211636493206,2817.624502524135,870.1638198490382,3221.3193968630985,3229.857262504057,4468.955651960734,1085.840837554345,3885.213531413456,2722.9559812066223,1166.8167901352504,844.1754318415165,1733.1216745012234,1714.6177706189424,2679.45584659526,297.67105350869315,207.55089440689744,4185.447054064293,3549.54740872627,2075.5139035234656,677.0464711611612,2915.769732833653,2297.4602615948274,1032.5929341370384,2186.146251786244,2849.989935969843,1886.178928660829,1376.7967926421247,3023.54530521791,1209.094942413763,3991.456302235846,2747.601444496687,2730.2563701830645,1202.7515578515065,1296.02714929177,3156.8766762578475,2981.114530014721,3720.929800550063
3950.084367186873,2087.313379516232,2009.45551750773,1035.6207988962942,925.2991122371355,1249.0106070953518,531.7939995521265,2550.9667212213617,2815.1716196166767,834.0405044076219,3180.6992633529017,3227.2552440463564,4452.25361054046,1079.7534328666904,3819.5143592594886,2696.034882159627,1225.5961477032645,814.3857131479781,1809.9326568096883,1733.5717683825003,2621.1225109308343,445.26786306614144,309.14948657731,4219.515929048447,3628.396472577523,2119.928885126703,694.8194010632719,2887.4746885063487,2423.0068034810647,988.307363160955,2195.420400114792,2905.105858600039,1741.8042039006568,1403.1874771146986,3145.038749427996,1196.7398678843206,4004.440365180354,2780.1483223621312,2754.4473744577176,1367.7824746802996,1199.527697968218,3334.3953082062494,2755.836063713903,3707.461333278492
3807.860169514466,2128.824443948333,1999.695043469891,999.0503785039376,1025.5471970729343,1215.591041379223,532.1181526770447,2520.65872280784,2820.508351022698,807.390761524975,3142.399401486425,3217.8596389446184,4436.61121321269,1076.1024421623072,3667.564926975697,2668.0057960695904,1244.3629391480536,780.1950084965922,1888.5501244257432,1762.8128526292485,2635.669074810493,602.841942308346,420.94538568914777,4234.394243013201,3704.032683586234,2135.3976250832784,738.810332469267,2841.387343275325,2551.753882121997,938.9635442093602,2210.3371151197844,2944.32743895062,1668.3593237715172,1421.7890479259984,3122.8982731633896,1190.8806521279653,4013.973389366505,2808.566980556153,2780.6329735314816,1567.6634774951654,1096.191801812853,3501.128650343113,2555.3144476186976,3693.986627560413
3619.948012046136,2164.645551630661,1993.8087731684043,961.2209094476764,1106.6652390207398,1180.7983902706037,581.6377007987953,2508.727259831695,2836.790050382259,799.0741598047107,3113.977079996649,3203.817223893755,4421.650266277828,1074.439868780462,3447.0352503942822,2642.046852075274,1226.0711455891455,741.9090704945345,1966.3143862453835,1797.4317621868845,2702.0474648506706,767.9698433229901,537.5445764569583,4233.885156698729,3760.030554320778,2130.14530352812,799.7252033769023,2781.81887570064,2680.484743806124,885.4176525154444,2231.792824419587,2961.579259040638,1642.7984711685,1435.7435077345358,2912.375893804901,1187.6301573000392,4012.4463605363135,2830.1514648179354,2809.0797660532016,1780.9412509208328,996.3626162827438,3641.858293388196,2387.9035232120204,3680.749748071038
3398.686588421748,2200.0723374640284,1992.204025582069,921.7478881440444,1166.9065274057689,1144.876904691324,663.5451995930682,2509.516500785508,2864.5176627429214,815.6972392355351,3098.405590642504,3188.0940629305505,4407.008165775931,1073.639046290445,3187.147378013692,2620.142823727517,1181.1354366527062,700.7716130114998,2039.3111911864528,1827.901029698052,2792.021796390856,936.4397192568932,660.7400491316214,4223.463549607581,3774.922970729206,2117.6309432493067,865.5952019431174,2714.309827919413,2811.817354271622,829.3859430633113,2259.3114949142905,2956.8090061543194,1644.242062910662,1447.498792041982,2544.557844794093,1183.775719348433,3988.748853326564,2840.860507116369,2839.9448533033387,1986.019376862754,907.3987586672206,3747.171741652845,2254.657039489437,3668.078053683668
3160.9130598893207,2240.3407222635137,1995.0098484611287,880.1578824507644,1213.4862781133336,1108.885934308672,760.4549889561458,2516.769223229753,2901.3879520096125,859.5392723507866,3094.903729133249,3173.4549495965725,4392.360467421591,1072.3595343411562,2920.048443290071,2603.246350972111,1122.4643132434069,659.8396054602435,2104.18722894628,1843.584034448877,2878.5169144298866,1103.428884287087,797.9002889207459,4208.809493269484,3734.1450553468194,2112.0522704611662,926.0148502027472,2642.518741818868,2953.9776368557928,773.8413843522744,2291.501356824456,2934.547147309133,1659.7096536620531,1460.5760083354512,2105.7291736340567,1177.26636898359,3931.147528739732,2838.022966223549,2873.21896137451,2164.4220801893803,832.4522728694078,3813.98149218809,2151.062806438212,3656.279276468064
2924.645619718226,2287.8265180861017,2011.0079517019733,836.252925588733,1260.0005847947018,1078.2560695227794,857.8085292803619,2525.3511495038138,2943.6032834063726,929.1028528803192,3100.4233391606003,3161.84571814406,4377.459297440017,1069.375921484876,2672.844860043589,2591.4628898388883,1061.587186067661,625.2685796888572,2159.921600762383,1837.9624665536835,2942.138581020785,1265.2181366714954,958.5280463635992,4194.629512412961,3638.2482502666735,2124.185137204789,974.9101933555156,2565.2754610942347,3116.885110587921,721.9795698350479,2326.7029362062704,2901.550384489649,1684.434683460598,1484.6225265063697,1693.2159043087452,1167.236930438862,3831.7842726241406,2823.279855681286,2908.7391052072808,2301.05811447682,770.6859165689154,3845.1664913970026,2069.411632272945,3645.576832301702
2706.432937658142,2341.22360326353,2043.960128256094,790.2048586396104,1321.1189238925265,1065.0955592349096,945.8264688360794,2532.0875176196178,2987.357069693453,1020.618355063902,3111.2236144459093,3154.1855756335453,4362.132404606143,1063.7759017462686,2461.9236483212208,2584.2812731727795,1006.3657118904372,606.1837305188528,2209.0935365181267,1811.9563567121263,2973.9376706147327,1421.0596606477266,1149.7046705546168,4183.998662616885,3501.4185746519697,2158.9887352778305,1010.8901458980558,2475.7043270003405,3304.138158350552,676.298623957658,2363.5299306926668,2864.6765044291205,1718.6132544494549,1534.067504750854,1381.5330324619724,1153.6666581187797,3690.54059812868,2804.097140856219,2946.260040032798,2383.759746898122,718.544880029199,3848.138849563477,2000.243011605272,3636.0863875072864
2517.717992242069,2396.9104472790373,2092.180016116152,742.3850903841362,1406.5525974610446,1084.0791334397534,1019.8982543410672,2535.819463411124,3029.866459587356,1129.4007174899546,3124.032289773915,3150.47368205123,4346.296733496416,1055.1217603552886,2290.998545715462,2591.984560018973,960.3110916607274,612.2508532439972,2258.0583713174183,1773.5708795370354,2974.2914466222355,1574.08050825063,1373.4113156039484,4178.2462403260415,3344.083378156311,2214.984631652088,1035.9974149460018,2363.512185216668,3506.4949094293247,638.5243273411666,2401.097200293323,2829.580711677356,1763.3060054707507,1615.2456763272844,1206.3007436069956,1136.9910051126867,3515.967795533209,2791.903925374262,2985.580653276042,2404.5839727917946,671.4392885092914,3832.631813001095,1932.989365480332,3627.8256953266327
2360.2452683171427,2451.407803573626,2149.028285415922,693.1278696506142,1517.5878836069896,1144.5593483995076,1079.8200619316417,2536.992435394935,3069.888833863497,1254.341260998693,3136.6705975902023,3150.0831839680104,4329.986241425695,1043.5326341436066,2152.930887362144,2590.9237722547,923.1881576895491,649.5748171391656,2316.068991479677,1734.8351064055178,2949.5700314428186,1730.5619302720534,1628.0156966286436,4177.259140997688,3185.539420112568,2285.442674477205,1053.953239428959,2219.500878554843,3703.365772866644,609.9561096460586,2439.018018453874,2800.0123338446538,1817.836166374762,1716.9659626385342,1164.4024728861937,1117.8611246476437,3322.693041284768,2796.6128950890607,3026.709066283061,2362.523996842071,625.1634864001867,3808.389479898511,1856.544480911987,3620.0444138328057
2164.7652162098548,2503.7260275064064,2206.1136296141094,642.6079993488986,1647.703601979944,1245.631088548815,1128.4062596180304,2537.020670772068,3107.7540380136684,1406.9211618020718,3148.257144540641,3152.1254214465143,4313.350512241554,1029.5549635510845,2033.829650549777,2592.1677173334147,892.3375155353453,716.7541505594643,2393.348897615969,1707.820743972737,2908.7307877957137,1897.859395040192,1908.865557516391,4180.008782504128,3039.1957266568984,2361.1625031954445,1068.5807822869892,2040.1570209267616,3871.1208877331273,591.4584137864522,2477.3611090702184,2777.5375559407776,1977.855691369764,1815.5156233481848,1224.7597226094915,1097.0024846266924,3126.9515612597224,2820.6773504596995,3069.93876980992,2265.2340931442427,577.4732496686827,3783.363393028317,1761.0294184582583,3738.406536742639
2038.8688177722368,2556.148670649131,2256.4268927691187,590.8850056855038,1786.4252106490733,1376.8113002847913,1169.8747830185628,2537.596154124026,3144.952936591357,1609.3618146826457,3159.036662440456,3155.769445846674,4296.621154874035,1013.8508577258526,1918.6216632242592,2595.3145707148874,864.1213142180043,803.7626873004601,2496.306880043156,1701.1602432138038,2860.5864132602624,2080.743683283454,2203.698428088593,4185.111007095416,2910.7237265571366,2433.6796467158047,1082.7383010278843,1830.218551531605,3991.857093943383,583.0665192426563,2516.5887344453627,2761.80006853847,2045.8473349189096,1886.379699102624,1343.2707589252736,1075.0741312785765,2942.6967726734256,2857.319988741983,3073.37376455762,2128.125566205539,530.7515286925027,3760.035478485104,1641.4417442468875,3718.370639348817
1912.515853124751,2612.1948115055256,2296.16127978116,504.8971612155856,1924.536457547378,1522.6915204290915,1208.3390918095215,2540.13985943476,3183.4935737796613,1857.712887725704,3169.9023427779407,3160.42092648634,4280.061029030776,996.9159959329324,1796.3417294412056,2600.1449173079545,839.4796570870785,894.9909655062133,2621.1774880802705,1718.228757758281,2812.0236282414467,2276.482843005336,2490.095170259243,4191.2789292701855,2798.7497942421346,2497.877509776692,1097.879409581727,1602.1644948757264,4058.352065484127,583.7120393942528,2557.36829293378,2751.243417448015,2115.133828516959,1913.378672259788,1476.700088120353,1052.5387078145775,2779.834665857816,2893.994365211144,3119.482114528835,1971.363383518735,493.6491948549526,3726.420964033781,1500.8408450498453,3664.7836345753294
1783.0910448749696,2672.874871498144,2325.0441372943133,497.2175373022444,2058.209883394953,1668.3604078004482,1246.7431369331173,2545.516029825375,3225.191426857125,2169.075384418241,3181.857141111902,3165.759024974055,4263.91452839404,978.995582484831,1662.3424009465184,2606.5702530856897,836.8639274677737,974.6466112130807,2752.768385669157,1757.343824218806,2767.9214690010176,2472.3221196127265,2740.9344764877246,4197.598089774449,2696.939379154574,2552.8563637034604,1114.1267265834108,1373.2705635242628,4074.4675925153,591.5005382444353,2600.3186957294247,2743.964680646576,2186.39743674877,1892.5623730172151,1592.3008938615242,1029.6174606987097,2644.436374229691,2918.009773007788,3156.349231069429,1816.4572511233423,478.5125582170474,3650.012668896557,1350.1300379098,3559.213955594326
1654.179777391265,2734.307279795008,2345.592696737045,590.5626955482721,2189.8706326898578,1803.2748905653964,1286.4258136672624,2554.0158400520136,3271.109383090007,2483.339722879281,3195.667179087544,3171.714297694273,4248.372227998125,960.17034527033,1517.763762498516,2614.5739102590005,900.4396895273549,1031.4698999044958,2870.516136360716,1808.4500971078448,2691.9859793418773,2648.93400595252,2933.096810848284,4203.617990587194,2596.507307560307,2599.8853463903133,1130.6259176369222,1161.801935456333,4052.190619131746,605.1079031425788,2645.878637314572,2738.331679231921,2262.9215760835377,1831.295373550373,1672.0190300915142,1006.3600120911163,2539.388633628203,2921.078969407731,3175.9866202795656,1683.2329834668467,496.32851570874914,3487.878744428109,1204.8259645112194,3390.1529976705297
1532.1509969690535,2788.6482968831774,2361.863315556048,829.9699278334162,2325.3600185343307,1922.7523514698887,1327.2371519112558,2565.5289529041047,3321.4661507165856,2754.3337081612854,3211.7795973249195,3178.409734497702,4233.555481720297,938.4584175628938,1368.2787852278805,2624.179755306234,1063.1927210633253,1061.1897552694709,2956.62013432926,1842.957472384125,2660.8069839054224,2787.836961001972,3053.5532717684778,4209.299583804917,2488.9559093372754,2639.024468677834,1146.0159955906252,983.7822861437968,4007.1704380629153,626.252923703538,2694.334709851316,2733.2288390931426,2348.5863913306457,1744.3026539565806,1711.8529920983117,982.7526403872196,2464.360756031516,2901.283002440754,3174.118918376137,1586.6030656183457,553.4000556299397,3207.312917689253,1080.6777230045404,3156.638142815249
1422.2032132439374,2827.6358550904906,2378.149904859646,1204.2351631237343,2468.2709362996247,2027.371700368845,1368.0156864457708,2579.7356106792013,3375.856340345621,2947.4729497771755,3230.345442288626,3186.0546045895203,4219.519578111829,904.7710612939696,1223.0992262866794,2635.4604346811,1336.906913141736,1066.5726056465458,3001.4572808379903,1816.869587867565,2623.9362163523933,2877.820651784151,3101.484711628845,4214.879599775936,2368.4989422212097,2667.801841973725,1158.9019406170828,850.8953238768761,3954.4424818408993,661.1016383666993,2745.889398845853,2728.0787026341623,2444.884696840543,1648.9437094030254,1718.0328347448512,958.7373918891536,2415.246376501464,2862.4608748765354,3150.257809537531,1532.9415605450054,650.538728532332,2800.1598528629643,989.347054087279,2867.119798209158
1326.556442783231,2846.1257510328714,2397.958654561665,1648.0496610918606,2614.154737526582,2121.1362353944446,1407.212123204535,2596.2178457740984,3433.47758909214,3048.568345974912,3251.2304057116385,3194.8324517843066,4206.269626631302,843.309137476595,1094.160399879623,2648.525610116968,1692.8099967295375,1055.8351877584994,3005.0069717789247,1700.434399254427,2567.3910160253145,2917.769260741632,3087.092498372897,4220.712360724689,2233.356113233045,2682.4851710907965,1168.203263219391,768.9486691710472,3905.432140575479,718.1428153491495,2800.68895323029,2722.803465986659,2548.697104280378,1561.521428129526,1702.03213700713,934.1639806678512,2383.534100548063,2811.9797258387403,3105.409956466455,1517.3581236486125,782.8566285899933,2285.788236949092,935.5071763355818,2535.2923828451085
1245.6810026689022,2843.5682577730176,2423.5104409100218,2073.51124441128,2749.359346750874,2208.970434559357,1443.434503322322,2614.524753122677,3493.432371910368,3064.104068534013,3274.1511707892178,3204.8282626233217,4193.781832145256,743.3097364781379,993.9549622743588,2663.464358506895,2074.2379180612243,1040.7163104701826,2975.100804764368,1503.9222038703035,2480.0431241328115,2915.854750965465,3027.9278017400293,4226.4232626015855,2085.6532147725948,2679.894473208251,1173.3117076394133,736.7137053887602,3866.639385272816,803.3257004375462,2858.8074541564247,2717.729573130886,2652.2603620942714,1494.9878241128777,1676.0502633236672,908.846003555394,2356.7994890472155,2758.032832891456,3040.9845915572814,1524.0030638938151,939.8227923408904,1708.4506458833912,916.395952058364,2175.6271241757795
1180.0941637473452,2823.631211383808,2455.753466174913,2403.6905243951283,2856.122786734092,2294.535396530842,1475.7723783939232,2634.216098299162,3555.040000005225,3015.4227685318847,3298.907819875691,3216.023840726864,4182.023667632259,609.8570978251041,931.7917558447734,2680.325860483128,2418.201484301243,1034.4771713982295,2924.021211838406,1273.1875065422175,2357.89948622139,2886.070959306503,2943.987982019171,4227.941657968308,1929.92978408176,2658.820213265862,1174.0807158960424,746.2286221974414,3839.838305338557,918.8776942909363,2836.6776671816533,2713.383919412521,2745.3849885034665,1457.4370764342862,1649.8546639702,882.7413099133264,2321.69802417598,2707.413141458639,2959.607927861425,1530.7787457346228,1107.393494231283,1131.0548013069968,923.359631638784,1801.780612928343
1130.5522681221246,2792.969241904777,2494.5956469896723,2594.35143136039,2919.966099986105,2379.730092558759,1503.8703884706697,2654.9120793754223,3617.920071656,2930.3043205757795,3325.4383635520844,3228.350558861689,4170.968682940988,462.4335062340383,910.7670075016954,2699.123280640772,2675.789049228749,1049.2391200768088,2864.8003239704203,1067.5447860991237,2205.3477012238327,2843.8109317986355,2853.266367129938,4213.723549323153,1770.7665463139674,2621.149640484147,1170.680810206394,785.2424609341856,3823.289725615585,1070.1935283932085,2901.6902491250576,2710.227606632234,2818.9668969527283,1451.2823727267362,1629.2322912320865,856.0445228530125,2268.119771754312,2664.3665086928945,2866.123761297469,1516.8667155705002,1272.2622633999406,621.8160860189157,944.1116807313344,1429.6760761341015
1097.121051088785,2759.4082826343765,2539.184666348967,2639.150341744816,2934.772553827313,2465.7954680958824,1527.824989767733,2676.4780802772834,3681.641384841833,2835.200406265607,3353.697473865944,3241.750625886252,4160.604278960082,325.7988277843426,927.1173037143948,2719.789070405073,2823.628164558054,1092.7493251544247,2808.270896668092,939.0976322562728,2033.3689609608853,2802.205143330002,2768.930176346262,4165.360048002052,1611.222914333308,2571.989790549349,1163.423798411544,840.6191595748053,3813.3676301968753,1287.6129113272784,2969.740493595288,2708.5156393503053,2868.1277525681303,1473.4799348806866,1615.8635112366044,829.0779504602772,2191.4441286474403,2630.475501084308,2767.4344691334645,1469.2029756117645,1425.3736761212378,236.01185816224643,965.4711184627032,1081.5664318383217
1078.3922882902211,2729.9378399441266,2588.271639584101,2560.816427701422,2903.9512604365004,2554.495732223231,1547.9916021764825,2699.1835440678306,3744.896102094743,2750.0738893240336,3383.6134253244945,3256.653514584515,4150.932963666126,221.8667251929121,971.7973879465876,2742.2250448625646,2864.97953983082,1165.63792706286,2761.442059400184,920.1683596101544,1855.1429013431816,2770.014570814227,2698.3348235481417,4064.926326805831,1453.3478333446683,2518.27723222976,1152.6917910598013,900.9651429944688,3806.08577043238,1548.065142084402,3041.162756421956,2708.419744655623,2893.1230930191814,1516.8967263730667,1608.2000547661114,802.1192438098867,2092.176788094164,2605.1433439610705,2671.3862810824985,1385.3810128946786,1562.461129708675,1.869288911713056,976.6899476002628,784.2374816070144
1071.3731355291686,2709.2874685635666,2640.6483840346773,2396.297165722884,2838.49183160775,2648.2895796819885,1564.7590861547385,2723.4853462810006,3804.910474759808,2686.166569670988,3415.167036524193,3275.143019740389,4141.96897622922,166.3430169439357,1033.254723966009,2815.243191572713,2823.11725193322,1260.8888328207236,2727.235281136303,1018.6049080236628,1681.8546227974375,2751.1298310775783,2643.4978114864507,3904.2880887960455,1300.0511530394497,2466.722593624913,1138.907711859555,958.1139443511933,3798.197112662189,1856.291995896709,3116.7592202275537,2710.1851217217773,2897.7650912320432,1572.649543145698,1602.8994967436674,775.9132945255735,1974.510030781629,2586.5330007167863,2585.3408648118784,1272.948219426205,1682.3986350793098,-83.44955834775192,971.9456211258856,560.9841592119901
1071.995187156552,2699.149455899842,2695.51010118292,2183.985364033472,2753.394101409962,2747.789847460561,1578.3807086813897,2749.660034615041,3857.971790145938,2646.308427529016,3448.442030046859,3301.040638903866,4133.73264377257,168.50658978042495,1100.2159818747932,2833.971570523783,2731.1231758943536,1366.5638686580935,2705.2521840411555,1219.0895918436263,1521.150254495618,2745.345264153667,2602.5451713941584,3689.809444955027,1157.0481849920006,2422.207377555922,1122.4348013138529,1007.7492440066562,3787.745960173673,2189.9493674800924,3197.0648535665314,2714.028839589944,2887.09233348914,1635.9617528966678,1596.3269334361037,753.4317191100447,1844.7831378499725,2572.667487621193,2514.630288748692,1146.5595443013094,1785.4736800508003,-48.13124630386142,950.6613665892368,423.6884393606497
1075.9499390094238,2698.150616100462,2752.5956596663723,1955.941095774209,2663.68464198079,2845.5930605044136,1588.894369486684,2777.6747528701594,3900.797574374928,2627.0916333333234,3483.62775253537,3337.5491404758577,4126.244593143432,231.04367449219853,1163.6988456803597,2844.428529339897,2622.019685955979,1470.7313414960322,2693.001933469593,1489.305016380158,1377.8636824443477,2749.804802917505,2571.561991581877,3439.9664124513138,1034.5387777516553,2387.1100836294586,1103.486223031713,1048.822322634465,3774.122429439228,2521.6916202517523,3281.9557959269523,2719.942577620407,2865.821896098707,1716.1590079064854,1585.6128797085526,740.6711805653663,1710.1248338802147,2562.04070925106,2460.8252522985304,1024.615413928273,1872.1324634239704,65.73259947045517,916.106358439635,369.6728293780354
1079.5005810424807,2703.579555144878,2812.0922586012184,1734.5162204686198,2581.142011968987,2923.8435035110388,1596.119728796485,2807.2667817535767,3931.7299965914726,2621.836962377553,3521.04114114828,3384.835808161576,4119.52126919223,349.7280431129402,1218.0504551254726,2841.4981535624306,2521.776911042459,1568.3778038642265,2687.140704482408,1789.3918156081331,1255.6526004842872,2760.555936934953,2546.218178368977,3177.867207752284,947.7780278037212,2361.504421410922,1082.1182907507616,1081.8464481565256,3757.7718307329,2827.0416196562646,3370.944786368251,2762.4314899822034,2837.8133573711284,1836.331646361757,1569.069960300546,744.0595279833867,1578.093262648775,2553.66455487753,2420.153184134133,925.9899461161016,1941.6533008772644,214.4655440366396,874.3862104929619,383.6823632846677
1080.0289027786375,2714.9618668559942,2874.362549607405,1533.138809930088,2512.623639179132,2962.725190465543,1599.7576360419896,2838.1228847717643,3951.168364197735,2623.339976832864,3561.0942343230145,3439.8904780023527,4113.572413102515,514.2568564027915,1261.0633103815476,2824.654410704501,2445.922465682373,1669.0199971071763,2684.534774297116,2081.880692289528,1158.377759701874,2773.8697744499373,2522.8601797715583,2923.3169631829605,912.9128960164704,2343.882761791734,1058.249989885469,1107.3802883197982,3739.744060465768,3086.975630294788,3463.184277301164,2770.7128548577166,2806.109684260895,2013.459955331385,1546.1793262023723,766.5619749832188,1457.2381240799443,2546.9645741737563,2455.684199496738,867.3582041864652,1991.0578598392112,362.3929809224276,835.8442898068101,452.872787103769
1076.228836622776,2737.33396709452,2939.6474621486377,1359.749319568539,2460.0970855798714,2952.109116402719,1599.5539830449889,2870.043121758927,3961.256053022481,2625.923502621268,3604.119578914946,3498.0865898326665,4108.400463250488,710.9541024312102,1293.304997098796,2798.753270188365,2399.4259303451813,1794.1003774219946,2683.042523494096,2339.5338359447333,1090.080468470593,2787.091563408814,2499.127885109227,2688.363279539757,937.7013492457444,2332.016071166377,1031.6754681738958,1125.801882934974,3721.245378767426,3287.701915792092,3556.360107291544,2780.062439525216,2773.0572476739026,2239.79297562839,1517.3734196817425,805.9983515376746,1356.6432964575547,2541.7177916858905,2406.3973178454607,861.6019560550396,2015.2085912690995,486.9268610650636,816.181077493708,598.0272159110773
1067.9491424358162,2781.4449322327023,3007.985447518848,1219.2281097278546,2505.61214960163,2895.6001155877584,1595.4398020505198,2902.978345036756,3965.1185345921695,2626.659408346344,3650.2323690824032,3555.146133244388,4104.00138836802,926.95982258848,1317.1274029102212,2772.632341737908,2379.034871887329,1959.045502074616,2681.999035429063,2549.5678381162693,1053.6097480079156,2798.9066624726584,2474.110391365501,2477.1428741442,1015.1396707643916,2323.6634247916704,1002.1369267678128,1137.7915796368277,3703.300527509751,3421.4276254173133,3645.569096229159,2790.175256231778,2740.371648472082,2484.5059438438643,1483.6778589727203,856.536691036167,1283.6676143279385,2538.003686802322,2333.315073379936,916.2198806057954,2008.6973087659385,579.0666491026655,832.7274335561463,878.378563690336
1055.7946657226155,2860.0988222956066,3079.3351667599613,1113.2159335670829,2474.5935433926293,2807.165186230155,1587.5801015494526,2936.9709508615524,3966.0020651031737,2625.462073001328,3699.426538566388,3608.549631399702,4100.366279038595,1153.988179247668,1335.8454373926695,2756.408424642756,2376.819328171277,2157.6591604067,2682.2062542606063,2713.603485320956,1048.8978769475395,2809.1574474793883,2448.0573822495867,2288.8067118543418,1125.7714523790771,2317.040715987957,969.4940482196318,1144.1574595330876,3686.570617587041,3488.1132763198093,3724.05614038729,2800.9781449534903,2709.20732710264,2708.517565881548,1446.2927816478866,912.1959638482316,1241.5446019565074,2536.087613823471,2228.4642840328675,1031.0466076083646,1969.0132686870888,640.6275283391678,897.6533797670741,1339.5154969293742
1040.6881794604044,2981.875047824671,3153.6773880203627,1039.2707723251551,2449.8106173090578,2705.071042975303,1576.305610644044,2972.0685061825448,3966.58279917236,2624.1044476910056,3751.762175445565,3657.8963701751727,4097.48306421845,1389.543652282077,1352.8125986982216,2757.8040638151742,2383.658650054543,2363.9244305188768,2685.215659192474,2843.435128168524,1071.703929451674,2818.478854806389,2421.9109127306374,2121.408411544591,1245.3407356017435,2311.098699240899,933.8505854789116,1145.0073973775588,3671.319380204279,3495.894340028358,3785.594367108407,2812.694981272072,2680.2042001882123,2879.3710712046,1406.232618799481,969.8960208528944,1228.4383582149835,2536.2790172283594,2093.0806339028936,1197.3911973599438,1898.9399546902152,679.9702004203648,1013.1720367838022,1960.8990853013609
1023.5187128208944,3143.995277572831,3231.0540797397903,979.4768638624184,2427.795760991807,2606.2169172490912,1561.9848584106326,3008.321515175652,3968.584195621509,2624.9064878008912,3807.47894939925,3704.3129335643753,4095.33790038077,1635.385424793546,1370.1507799275478,2778.70944458094,2391.818595332288,2545.0525111924308,2692.3815191061044,2953.2830404966926,1113.5035806127569,2827.913775284017,2396.8935851609203,1974.0695115420544,1352.4217878053637,2305.579225438834,895.5100692145659,1139.4913374370926,3657.486826558178,3459.169161309806,3826.693306123989,2825.6927878605948,2653.5758795750603,2980.132307300046,1364.0902701114755,1030.2714961909946,1238.203499926126,2538.8524258046323,1936.9548711149723,1400.584578414359,1806.4169674637049,707.6793515314025,1170.708320061056,2658.086785077513
1004.9257781219684,3327.4127059105576,3311.679617680001,949.3950268155032,2406.2629920126747,2522.450186618451,1544.92022410452,3045.914854224772,3972.7145046154446,2629.6940741402595,3867.029747234167,3749.4809912710175,4093.916011711969,1894.7545480478657,1387.979083989867,2813.9831402754367,2396.3386836543887,2674.5104103080503,2704.3411321987323,3051.705023329954,1162.685592444191,2838.5611580067894,2374.162752548937,1846.067704188983,1433.2234084829852,2300.816232099364,854.8114961591182,1126.60871808324,3644.816848495505,3395.1044321781856,3846.652775248997,2840.295864034388,2629.295114813724,3011.156035524939,1319.9669560281864,1096.4625583958468,1262.25817048711,2543.9928517814697,1774.4837738317924,1624.5113696569106,1702.3664474188608,733.2140931299559,1353.6914049241643,3321.879827755727
985.2487651544404,3497.937934747278,3396.076220551216,929.0729683846204,2384.165347865124,2459.232467525505,1525.3105933068064,3085.224016440636,3978.848453661039,2639.2670286147472,3930.9891731763473,3795.070580461872,4093.201967999802,2168.7937702614245,1404.762463026499,2853.4639188762144,2395.340920980968,2739.599183782953,2720.993790448193,3138.387443167593,1206.6081247130917,2851.302127385369,2354.5175848075583,1734.854733838192,1482.9198306508831,2297.405035711185,811.9389761891355,1106.2242927058137,3632.989895106312,3319.915853891664,3843.935061017872,2856.713767926772,2607.261491660055,2986.364516982777,1273.5776078804593,1172.0157717313236,1291.6279093985647,2551.742045283704,1620.0355566101732,1855.2365322322128,1597.8527073589878,763.0411647551173,1542.4275256621463,3858.554920592921
964.6002569514789,3614.533964827374,3484.906453676509,911.5402620186652,2361.501759137124,2416.216305403466,1503.276441861968,3126.656703802234,3986.3380286825113,2653.425954717297,3999.878512995165,3842.661927338495,4093.179529385444,2451.521879008492,1418.2687695260463,2886.0271123461043,2389.493858187597,2742.6188446352025,2741.777579847702,3207.0998398537536,1233.8868484172945,2866.6572299486656,2338.254760112803,1636.7219683607632,1504.2822196484062,2295.924518478504,766.833012571632,1078.9392162961674,3621.726799252271,3246.064903058191,3811.4452276778775,2875.062744602724,2587.3379794433417,2926.8060590662326,1224.4586918874984,1258.988439354915,1318.3877339270884,2561.991539690669,1484.2797797772582,2082.435735131266,1501.1728071319644,800.129181346364,1718.7588634545607,4214.095718301534
942.9743215406888,3642.029227746303,3578.4070215352067,891.8559384456573,2339.050626742443,2389.0881916973176,1478.877344436626,3170.5318599444136,3994.3402883131193,2671.3270621980987,4074.033600944548,3893.611646727041,4093.831251130133,2726.3212152927103,1426.4780610073856,2903.447935672708,2380.978931059642,2697.265319975726,2765.982515501313,3251.003316931716,1236.273006548087,2884.8026369365243,2325.2427179383826,1550.3049808921016,1504.8513919781203,2297.143966208745,719.3148897227888,1044.825872958941,3610.848059533557,3180.9998559403666,3737.030919605913,2895.436201514626,2569.3261332353086,2854.1236936954656,1172.2073110331096,1357.5614426243078,1336.5397001906315,2574.5363704889214,1372.3730585296405,2298.916653756718,1415.6121074729117,844.3307239372946,1869.2629712675728,4379.77928468358
920.3078034469132,3562.709098079224,3674.174503486137,867.3579553330637,2318.035477406941,2371.897853213938,1452.0789731120528,3217.135985650263,4002.0805870110025,2691.902279454493,4153.5084111345,3948.576705362084,4095.13803742128,2968.8153902297613,1428.170944825281,2902.387218651154,2372.426058108036,2622.936281007939,2792.903910776443,3266.6197050439723,1210.3753376062064,2905.646541907269,2315.1233499217687,1478.693401176491,1493.7738332812671,2302.8907764995874,669.295154273834,1003.32554608847,3600.288893385856,3127.429439713353,3610.619906548121,2917.972486137691,2553.019182436565,2785.689336765983,1116.7154223803773,1467.5289733224597,1342.733769311767,2589.167740764179,1284.4560231258024,2498.91225474946,1339.2726311205988,893.2962970881608,1987.0900677086868,4384.3814161691935
896.4875834968948,3381.374038051823,3761.331230281844,837.4080241263703,2299.748710859324,2359.032997854837,1422.762817183807,3266.759574844696,4009.0106791041335,2652.82753595895,4237.618394141348,4006.733026105932,4097.078784537959,3155.341769767902,1423.1231627922048,2884.275944322351,2366.15363983316,2539.21466482797,2821.920685181104,3255.3116759242275,1159.3711436622584,2928.8715849879004,2307.519472080205,1427.7238556249958,1479.198190867366,2316.1449356135577,616.8492320802416,955.5739974150332,3590.081014537381,3084.557639999681,3431.777006172966,2942.909763674919,2538.3025847317977,2732.110454508382,1058.2815534559418,1588.89951434455,1336.5712422711465,2605.7518925924314,1218.172281899172,2676.141857254409,1267.419029775425,943.677073873693,2072.3602780793017,4279.192532470458
871.3414040350049,3122.470093495251,3816.038524213716,802.7891076934163,2285.211049942066,2346.409658034848,1390.8349859071377,3319.731569102929,4014.859150449609,2648.4679328572115,4323.7377481420135,4065.072660940531,4099.630186977286,3271.3042332854884,1411.9420455418044,2853.8780121068016,2363.77548090679,2461.683536750969,2852.57481327732,3222.68119004424,1092.906207030681,2954.0371571337746,2302.172657943918,1402.4854675464912,1466.730729133026,2339.258048882375,562.1543882324327,906.5227806419229,3579.1748042307563,3049.640595476067,3211.750948178956,2970.613796126265,2525.190143195095,2697.007772581325,997.4973970611176,1719.4930717076927,1320.041608877223,2624.226882981892,1171.9238759545865,2823.246970411413,1195.510704498227,992.2604364920554,2130.668324827138,4121.255275839689
844.641531971246,2822.0027557442304,3807.839824884197,765.042015086914,2274.950846234017,2331.923373949885,1356.3132982362808,3376.532095468079,4019.598068753629,2577.6286271457534,4406.392743965856,4118.5563655853375,4102.766717564222,3315.215670203843,1395.711438803059,2817.3826500632304,2366.112521318525,2399.676453852644,2884.6150622094738,3176.788183686989,1024.0468106167268,2981.9388982098208,2298.9553700227925,1404.6221899703326,1458.9747430614543,2372.0868937417863,505.4002864220258,864.0766003451529,3561.267168205264,3019.415066536625,2970.3319095975794,3001.4810684064555,2513.74021420872,2678.5782856931937,935.0060382849152,1852.5995597257047,1296.3214147308404,2644.5456460705736,1146.9072524700032,2933.537685123959,1120.7218983715236,1036.7371072944138,2170.0934377192366,3959.6798393590025
816.18986850272,2517.868588521479,3714.9909931393577,725.8876474598446,2268.968959303739,2315.323288103168,1319.2967221654303,3437.742942211488,4023.36189270636,2408.752116223633,4478.277466544305,4161.510734217229,4106.460747949364,3297.7641406771445,1375.6566820605044,2780.641533818516,2373.260111706176,2356.184323647555,2918.006063501589,3126.047777360861,964.9709042820282,3017.830035034387,2297.807832474461,1431.384045399694,1455.907142750078,2411.966210974231,446.7528887238864,836.0784082778678,3520.563428712938,2991.069790346852,2731.076709441128,3035.7842888003256,2503.9150991225715,2672.042082370273,871.3211695547734,1978.144770740006,1268.5390196908256,2666.6519607810696,1146.8617292978472,3003.76388729221,1041.8524893546114,1076.016661197962,2197.996040612785,3827.6297388427774
785.9669803993077,2241.387232531015,3536.1775081037376,686.7563783080209,2266.867769752037,2297.673295834521,1279.9210151022398,3503.847023268577,4021.6804724994495,2146.0844748202394,4532.810350643258,4189.569461795329,4110.6827541325765,3237.46988568593,1352.8721671599535,2747.915523264879,2384.689946485192,2329.3387853894988,2952.8881890820426,3077.464204635524,923.6540302628564,3071.6728068578004,2298.693307090393,1476.4247777670312,1455.744474875787,2455.0746700125683,386.3869228867957,827.5380931371233,3434.226515424232,2962.709168001115,2516.65428589936,3073.6524764322194,2495.6479501614504,2671.877698829122,807.0838251310374,2086.2285247388186,1238.993072755465,2690.476496001457,1176.1436610618189,3035.778405463484,958.9952450293488,1110.129591538568,2218.615850644256,3740.024343254432
754.1659749968051,2011.824544290966,3291.257841013836,648.4852790950533,2268.1212484732446,2281.804857227066,1238.4200670715331,3575.295881953673,3992.822275144196,1829.1715492095443,4566.396279123152,4201.02799729769,4115.401550460122,3155.2157747376605,1328.0831130600336,2721.348396734923,2399.4739044566186,2314.5037170446644,2989.4986785694045,3035.5631649173984,902.5596217610736,3151.713846235952,2301.5985153845586,1531.7051349319036,1455.970817951167,2497.906996962646,325.9161476968593,839.3440604064901,3281.8607851543284,2933.477821885197,2343.6493123352143,3115.141633089149,2489.100321330701,2676.6487841824382,744.2994846102627,2170.1299465441334,1208.958616264382,2715.892216493518,1238.1782524656253,3036.312916555152,873.9311424305172,1139.8342274522795,2222.0054679679174,3695.9029024479073
721.0847957800347,1834.864394174928,3013.8564161829995,611.2328854763666,2272.340080359766,2274.786913710592,1195.185922361921,3652.71115223652,3895.76980745918,1513.4734554671911,4579.295647826362,4197.094815430775,4120.584508411412,3069.4898131355576,1301.538755221517,2701.184274520068,2416.672673833288,2327.9103208443244,3028.079351697284,3002.152810130701,899.2318084818019,3257.815608642593,2306.538100151193,1589.4804131328374,1454.247906271978,2538.19243308883,272.497904166519,868.4996618978728,3055.1902039722345,2903.413212504768,2216.843235196056,3160.3168857196474,2484.686328225125,2698.5740276933566,687.7410342193107,2228.010239896604,1178.8437320448184,2742.699384986832,1335.5027449361337,3015.2549499893644,790.7114962444045,1166.1502447089888,2237.6074613627525,3683.927786846546
687.049382628993,1704.3042681483323,2741.591630909054,574.6358659878188,2279.3013069566146,2287.8764675434936,1150.669117868939,3736.230102581394,3694.257459670769,1250.030059608827,4575.106186130386,4181.210254572934,4126.197735642698,2993.342159333535,1273.1157944935994,2686.408275561366,2435.6599048527314,2325.814715189654,3068.780752001576,2976.861903361518,908.0777241537298,3381.294313154419,2313.5139622410584,1643.7018860932776,1448.9775219360297,2575.212467688604,240.80206113863665,909.4613465641082,2762.325829666931,2873.1188931725587,2127.1023589619454,3209.455952979739,2482.827144168809,2764.532815949281,644.3750657491557,2264.0639165042603,1148.4295828723664,2770.795438892136,1468.4130937047669,2983.1919679935854,715.2216930371283,1190.0043190312786,2251.637166286567,3688.976183075376
652.3743993538974,1604.1762413151753,2507.51912060156,736.9942015594081,2288.8300240974195,2330.187105326572,1105.198227246241,3823.661433481513,3383.316865054373,1072.0017446125016,4559.388080105067,4157.887560431618,4132.2062094594185,2933.335149045117,1242.541916164543,2675.432414778972,2456.1594980226555,2335.483349459113,3103.5450744087034,2958.07332911391,922.4940412293312,3509.5622812105257,2322.483616677284,1690.660944015312,1439.445816613761,2609.6065072001115,247.4047587724799,955.9155861319502,2425.4409038403755,2843.4499597148306,2056.4426410515644,3263.227441907613,2483.752309512673,2898.0217729761007,620.7692275236775,2288.390046698646,1117.1334708969612,2800.366209166479,1630.7345629611636,2949.2951091402706,653.9381495710461,1212.025869820611,2260.9917742263565,3697.467024912755
617.2326482821068,1511.9815909220283,2334.5301794619854,702.6186416615828,2300.757558026957,2402.1679115650813,1058.8836317283874,3909.151247490021,2992.350567269264,989.0678119667814,4538.073051605194,4131.540329224042,4138.573872750495,2890.2060736419016,1209.619570480526,2666.658488999038,2478.3703879416225,2362.548011729811,3136.345551387568,2943.776200954256,936.640478829942,3631.212974730218,2333.4133710661577,1728.840437360474,1425.6578065066983,2642.8554859816427,301.9574167854171,1002.3046129319936,2073.896172870285,2815.275695059115,1986.432925698004,3322.4559422194434,2487.422344330931,3099.6048743402835,620.7454686561439,2313.7575615097467,1084.286775021364,2831.3570389089773,1808.204128972418,2920.195337540512,612.8118402555283,1232.492912584341,2252.8679138718635,3700.001288694866
581.5074219196783,1407.37507589516,2232.817491195138,691.6598078390944,2314.9592210594583,2495.35215846608,1011.6234827603408,3984.301323905623,2569.5189759928685,988.9965388619266,4516.1614002118,4105.620973351031,4145.263707670315,2860.644808137719,1174.3997512574738,2658.860358207773,2503.564155990821,2408.1709304035435,3004.532153332373,2932.1353595312894,946.4667106890428,3739.2372316165856,2346.349252454819,1758.172113365206,1408.0721613081491,2676.777853578608,402.5403356684408,1044.7414659297297,1736.5038538081003,2789.309564872404,1903.9592231416843,3387.624042133786,2493.540520602936,3344.2716589048214,644.4855165772553,2349.843828994575,1049.3513304046814,2861.879974668528,1982.941532447055,2899.541956549087,596.1413131375489,1251.3954668317908,2210.185900239152,3691.891570759236
544.8851002198378,1282.8550518001443,2199.5739199335185,718.4345025355506,2331.390724565935,2596.7641050762686,963.1544596685496,4041.184473228483,2162.4410695355723,1044.623508626367,4496.828090957358,4082.20878587268,4152.237803419729,2839.5067549804703,1137.2020392852105,2651.3506838027342,2519.579096581063,2468.0334639451416,2715.0627383503274,2921.804346894594,949.978108207222,3831.901995964015,2361.391812340288,1779.2301282555504,1387.4008994765793,2713.2276109277163,536.9491648602389,1081.2595843340805,1435.6923328677135,2766.033087281664,1803.0480240620527,3458.4851895804222,2501.6832370812326,3592.288370268413,688.8722277977988,2398.3518921269974,1012.0507006108604,2887.150359612698,2140.18125183706,2887.973960260657,605.2650294875277,1268.551948070756,2120.438325655392,3672.790435137716
506.19211410425055,1146.9654497615309,2221.050710203745,787.9380543075581,2350.0529881056555,2693.981322052331,913.1400770465068,4075.093866607546,1804.4952384787457,1123.2912036135428,4480.22962434201,4062.0237607528943,4159.45743114107,2821.7758695646507,1099.4672837028486,2643.982856609404,2557.07508446795,2534.663466772031,2296.971244126208,2912.0355802611743,947.4130532359582,3911.861063081517,2378.609024391094,1792.753973309907,1332.4788424346252,2753.9196779973418,687.5449088600976,1111.5477929292942,1184.1265792697352,2745.6888644121896,1684.2568381897374,3533.500264498546,2511.5146894651743,3803.826992858194,748.6049138493095,2452.035502631324,972.4239833245442,2900.833764474364,2272.488020431781,2883.853546727419,637.8875836766397,1283.7372757296357,1981.1926901630047,3645.586933589389
461.1369106975183,1018.2317977816448,2277.1070620741525,894.2377643243924,2370.9006901414323,2778.6566827988227,861.3616447275201,4085.709341284679,1509.707753082955,1196.3914907175206,4461.802496239192,4044.7393593427714,4166.883133467545,2803.7892366907686,1066.7229906242046,2637.048010870112,2599.679237672551,2495.5436520017024,1850.164409623514,2902.6489842679853,941.9212822188553,3984.464947089472,2397.9921918388964,1799.5120529319383,1327.8500255294643,2800.1690562509043,836.4810307242217,1136.4162764990788,983.8648450719032,2728.284156100364,1553.1246794064102,3608.967479357657,2522.9817876051743,3950.9237221223193,817.5737525990423,2498.092152370481,930.7506343442842,2897.9147561505733,2380.3559253720514,2884.70654213796,688.5467442233246,1296.7283454611,1800.6644375689536,3614.6298520956016
402.6778139911585,915.8227906418952,2343.584830374676,1024.293536154992,2393.897820418949,2847.866789628451,807.9498199840896,4076.639683597501,1274.846680983756,1246.2660965109048,4432.432320587772,4029.430730909952,4174.474830688841,2783.6631191048978,1050.268484768702,2631.0642811413154,2641.19862155155,2554.112573779983,1498.1240472727543,2893.930776025044,938.9511854970128,4055.739517405343,2419.4960843723647,1800.348465078408,1374.1527572310065,2852.574531556529,969.6076389664888,1157.1627152393344,828.4406229802421,2713.632872630392,1418.290878627778,3678.847092832745,2536.357422695545,4023.150285262791,890.2461245628326,2523.9456506264023,887.3855837757114,2876.624873402229,2470.9218467944265,2888.498876730084,749.8446919360993,1307.2693745733754,1594.690659556644,3584.08367007428
327.10391698759804,852.3415749576027,2388.753548976364,1163.3782234475796,2419.1855561284788,2903.642689724717,753.3805252014572,4053.923725108487,1086.5438699753802,1267.488391910033,4381.800131881382,4015.011726701829,4182.191941199626,2761.1597423287244,1062.9142026142986,2626.542002685296,2674.5742309260886,2604.143360291374,1333.0408229974723,2886.460345535162,942.3633110045604,4129.747722997567,2443.143210340318,1796.1990367112724,1502.262724760279,2910.9336971866346,1078.6318961025331,1175.068293831023,706.9361498435285,2701.4575505470734,1289.0692634853017,3736.196547778614,2552.1046373264844,4026.800741721398,962.7379819844944,2522.6150233843337,842.6549644058762,2838.1732009919306,2555.9120572215406,2894.148215268189,814.1105916169176,1315.1038095661545,1382.377014875577,3557.003070595375
239.4622597503744,830.8051944753515,2376.211400054516,1301.0395082166506,2447.048446986364,2951.3127296024763,698.1551854488343,4024.222122565016,930.6995302706014,1261.528507777466,4301.847573614421,4000.5623658007953,4189.993511503079,2737.240109527668,1137.5823369011987,2623.8675698305137,2696.3860402083624,2646.16289790088,1382.6664541986256,2880.867532744492,950.2768661306972,4206.062055419888,2469.0759967766835,1787.9641020700528,1721.9191844214597,2974.552551502108,1161.6701385056504,1191.1668397440449,608.1521481068003,2691.4666326023043,1172.9707154636826,3775.529446765431,2570.706380064167,3979.6868615159055,1033.0311995430077,2495.536649074105,796.8413177870405,2785.118327475542,2648.724264320239,2901.4252844805487,875.3236450484451,1320.058326083794,1182.1136704392873,3535.067821909791
152.40489816548552,845.4558767471256,2283.574233304888,1436.398299137855,2477.7206657195024,2997.357999510032,642.5123442475128,3993.291536605062,799.5524681131299,1228.1565073554466,4188.116567350031,3985.5057048893104,4197.838350499563,2713.4487200366098,1222.4045081183062,2623.341284349034,2708.010544451486,2682.982990977485,1612.12369030116,2877.59685089795,955.6449319853556,4279.436708300167,2497.480712175659,1776.3536884068028,2018.105052982709,3043.7094918356624,1222.648012026857,1206.130532621392,523.9615845639994,2683.3997612098483,1074.10730229951,3794.587399315649,2592.5355038459666,3904.2874763292657,1100.534556397474,2453.9005915665443,750.1896115622178,2720.325825546965,2761.4835673756743,2910.589459422967,930.779492192574,1322.0721489370098,1008.3333280316932,3518.6787269458464
80.8305930254769,884.9097566060755,2118.387750923715,1578.6009139682458,2511.242364570446,3047.682487558103,586.4649804605074,3965.068268171373,692.797520772941,1251.49290147922,4040.0877911220377,3969.64211458068,4205.685163619508,2691.2751844068725,1331.362530579161,2625.2284672045885,2713.037853907876,2718.7121016910883,1948.93460468368,2876.758647237153,951.0846494909536,4342.237384608015,2528.4910198683265,1761.8368537700926,2359.8592063776464,3122.3157543808093,1269.5763351476644,1220.210404098294,451.5689900017767,2677.159412247908,992.5749487613988,3794.756195294396,2617.769384609691,3821.5813546459513,1165.7153353854883,2420.4840737296963,702.8473803950403,2647.132980353384,2903.7276204479244,2922.00082992742,981.8608285406212,1321.186390861208,869.0237534092516,3507.200185102405
36.72483153408257,936.0109575071724,1914.2263935163824,1738.9291513719256,2547.39280470224,3106.7172514081367,529.9838245489816,3941.422358963251,613.9357031585876,1148.3321525168412,3861.358535446009,3953.080325393344,4213.4926839045165,2671.7252116040154,1448.1558715048373,2629.653133811906,2713.930902505601,2757.666514093161,2313.1168373201954,2878.1528817736057,933.050702343703,4387.779633112844,2562.1840168181,1744.6720721279064,2711.733740970117,3217.5532521895057,1311.9852667437297,1233.3070439975754,393.82077283129,2672.9203937614107,925.3857298254944,3780.28284235854,2646.9808548638366,3746.965586276567,1229.9530653638062,2425.2881872419925,654.6791201065143,2569.7131050955604,3081.92414383618,2935.86873191793,1033.2777920546828,1317.526005155543,764.6936747568272,3499.5039066226973
26.561373240056582,987.1083675864028,1714.411890862002,1919.6844501732123,2585.762867255184,3176.9918508764185,473.0874706157392,3922.448865020429,565.768158439575,1018.077849216555,3659.16466991628,3936.116327176325,4162.033173081176,2655.2495206233007,1554.6161366377503,2636.4466791531377,2710.333051680036,2803.3807006052702,2641.9311663238745,2881.472390451473,902.6872987072276,4285.245700663221,2598.6558043559703,1724.9297315995952,3043.307404523576,3333.57204821758,1358.3128314745618,1245.0930360904997,356.6657101437013,2670.9732120232256,869.2603482986403,3756.847286906797,2682.721000748758,3688.669026649739,1295.1899933769173,2490.1051808721127,605.2161553784151,2492.8707239814617,3295.4861710872656,2952.1668350351315,1090.3813558534146,1311.2636549123847,689.2063531092717,3494.6281005381925
51.44299261334254,1030.0671338919465,1556.088124300366,2109.895646147912,2625.9564669444926,3259.1039828454404,415.9118554316542,3907.067046926989,547.5794380311359,876.626797111513,3443.025097951326,3919.106813987372,4171.375756309468,2641.890857611284,1635.7249170801538,2645.1773872932336,2699.464737536151,2858.029003396243,2905.0871102395045,2886.496390815726,864.3425115650775,4287.212290726053,2639.438772075308,1702.5359222461518,3334.433755419524,3465.2249758874186,1413.83868994056,1255.1329097229152,344.7909628308121,2671.4724276998363,823.0950635760337,3730.078305176354,2729.748597509758,3648.3000495869537,1363.4858253355076,2615.090455804071,553.9744482298804,2421.405553965856,3529.9958159823555,2970.6436291447844,1155.61116366345,1302.5689432515906,632.0816968906902,3491.703777210136
108.5869981151818,1060.9478894383424,1460.5230905130857,2290.332453599721,2667.729081173216,3351.9968012310947,359.1587292263084,3893.69213691302,554.565765178208,742.1529378982666,3223.160619149103,3902.36968098506,4180.756310586205,2631.4417455192624,1683.4940854404745,2655.3374635607665,2678.329715153053,2922.4539453310963,3108.231986733828,2893.121816165703,823.3912192574362,4273.335643727693,2689.602304140202,1677.4116934728038,3574.45856350171,3598.516072606723,1479.825291329421,1263.03545461961,358.41009353441336,2674.405643634249,788.0186978299423,3704.437855270032,2792.1485014808577,3622.743221570513,1437.2441058560205,2779.6711840133494,500.8302119111984,2359.4282938293154,3756.6212614880433,2990.9061681072226,1226.2331936498526,1291.5354952164366,583.5221190581372,3489.44242570246
193.1167602621722,1079.5700637925338,1430.808640267914,2442.112927381341,2710.9783271246515,3452.6998747284315,305.679113102909,3880.799681301929,578.9934378002426,629.031656365046,3009.3518553709687,3886.126738967369,4190.129496717501,2623.5765486162672,1698.2071137149976,2666.5465361721417,2646.781432052652,2996.629038498568,3282.149703429369,2901.317809085258,784.4017270564491,4249.223501735472,2753.273979643259,1649.6007467172544,3756.59845001368,3715.313430358812,1553.9830817511024,1268.5802122143984,392.9393586257816,2679.7132995970896,765.768592818996,3682.665223777352,2870.2777600500176,3605.7700392717024,1519.7785411824614,2953.351102121975,446.1300166740798,2309.912299186046,3941.426629263249,3012.526598314721,1294.5374710077829,1277.86400685316,542.7285314003707,3486.404836552464
299.7270386493833,1088.2905699844114,1455.3253207599246,2553.3993286393074,2755.717222027686,3555.5554981285177,262.4015201847073,3867.284950053446,612.1491399224874,544.4004113322826,2810.1945540182683,3870.4885445723417,4199.4500137804025,2617.951870300512,1687.1044755526125,2678.671834999706,2609.31554076629,3079.965206802796,3460.331661567336,2911.090860422063,776.5040244055915,4220.644745825076,2823.0208798641256,1619.2690495185598,3873.804843182768,3796.3694093162594,1647.0959130210454,1271.731947214013,440.7415815378856,2687.3699893913044,757.2078767776125,3665.763714208899,2960.5786191095576,3587.4070993526207,1614.822179691706,3107.4761344842154,390.5438605999925,2274.7953705002938,4057.743243538211,3035.097377559198,1350.2819737256027,1260.2745435058905,520.9359275031502,3481.783675753909
423.5407563779991,1090.539202501412,1514.1784933814286,2622.3454165027315,2802.135749994309,3652.451402805532,239.30157727767985,3852.600020038338,646.238068798669,487.8285127697041,2632.0362119075426,3854.424212688847,4208.672730467287,2614.2649583354923,1661.7542537401655,2695.486345482356,2574.1916941035865,3171.323837195675,3658.464741817144,2922.4513174411422,750.3304513928165,4192.289624817049,2877.359165548848,1586.6489568179345,3920.8603050450647,3823.250003187835,1723.3130149871367,1272.5657118886638,493.45069534813456,2697.418965744523,761.79585070858,3653.376850925805,3057.539112615306,3552.8178422546425,1724.6411743397166,3223.2715341037306,334.80206157806106,2255.3367349968667,4094.297044607113,3058.389574262624,1384.3868399423063,1236.6501293132826,531.8968042736199,3475.6519888308503
559.9028669113334,1304.242304674892,1585.9171610898684,2656.726521991692,2850.62928156144,3734.862157427048,244.5395101078532,3836.709785955221,675.663709646057,453.2975585620586,2477.348739902573,3831.542594483143,4217.752817178029,2612.297425731071,1635.139062401252,2733.9570518415467,2550.722274208198,3268.9378785044646,3868.941318424312,2935.4109123846806,728.8620776373573,4167.116239848588,2890.225853598675,1574.6218822391074,3899.423755705744,3783.5397304502,1785.03803442474,1271.210615804947,543.9734710740684,2709.950852232015,774.1952961436436,3644.349133066415,3155.9903257206943,3485.7315979567966,1847.55716469572,3294.701162386608,279.48088447359487,2251.9146081400568,4056.689492549019,3082.57002122564,1392.1248315663297,1205.4996965790542,579.7347806008825,3468.741905816128
704.2183418619111,1308.546108413948,1652.7145536047017,2670.7183908271613,2901.637206621708,3796.557502188226,280.0190206505599,3819.9378861601112,697.4825332389671,432.7923622959538,2343.676274949404,3784.948484522751,4226.64587838287,2611.9572704332736,1619.07807700975,2823.735383187114,2546.5041541995133,3369.6603505520643,4069.355686407547,2950.0260891132903,710.3776052453268,4146.122604317421,2841.6699464350927,1539.983610310299,3820.651491473669,3677.0953581387153,1822.8824911307763,1267.8399144185814,587.7260990277512,2724.9786976266114,797.7557773664614,3637.283560118708,3252.599352773299,3376.88353237784,1976.0612302246625,3326.870627186007,224.84018800980607,2263.267095891312,3963.286029580428,3108.070315710097,1374.175921872609,1167.3000585949874,655.9886949739105,3462.245529355354
852.7307348465681,1312.7268067053656,1703.2153319288814,2679.679099562117,2955.4222412180247,3835.357232799628,341.0670359309586,3802.776487556708,711.1705040104393,421.4391005052139,2223.702371763747,3689.1611175577873,4235.308084531855,2613.342223448608,1622.7337235948332,2985.944960209681,2565.4240465230623,3467.9273031357607,4235.276409445275,2966.410754075069,692.9238876150941,4127.620072921098,2723.0982321988963,1505.9923154397368,3704.159097847629,3517.014769776229,1831.24870574036,1262.6134788701213,622.9185732587707,2742.375075736314,823.9653412182131,3630.967147576345,3345.792241948773,3231.669568655294,2097.187872848368,3331.8663991528824,170.7467747217031,2285.961193217943,3838.3246793086046,3135.169465054212,1335.435283434614,1124.3238539073725,744.4148982191793,3457.395247797883
1003.2151437065834,1316.976399348919,1733.0153832052356,2695.4359100780466,3011.9828046315743,3853.301528817929,419.3662618830149,3785.382952250173,717.9321227842556,422.19491268158254,2106.5407729656604,3521.1646330523254,4243.696302704053,2616.735220607848,1652.2779054657285,3213.217677413831,2606.377580473444,3556.3472173042064,4350.042314137837,2984.640517453021,674.8009962266176,4105.327601028217,2536.804906315022,1474.317228897753,3572.788299647762,3324.7179210836966,1811.270711259982,1255.5788259403982,650.0141265702234,2762.025663229276,847.764512268787,3624.607835937044,3434.09469982688,3071.067847718328,2196.220009021665,3324.0379741845936,116.91791471165423,2314.7859329527423,3705.212667814216,3163.7608716519617,1282.8684096775837,1079.4214962176416,827.6463441176174,3454.784690393977
1153.8638993672726,1320.6776347126818,1743.3394158072872,2724.1997913179803,3071.0906587878944,3855.539763003907,506.2631937873689,3765.5376309528656,719.8003719942565,446.1608763992672,1982.3141758911736,3271.9910464239138,4251.76822523854,2622.4194853441563,1711.0382312580266,3471.654355261224,2663.222873230786,3628.095120415259,4409.074384636082,3004.6281738853663,654.7521810173771,4067.4976489319615,2291.734294605819,1445.7557299755613,3443.2254267723297,3123.448995619227,1771.2274314598776,1246.6587697913858,670.7956988489193,2784.025643174708,865.1490653838334,3584.571259546024,3514.4286978159844,2924.280656645089,2262.519358090572,3316.1191187887907,63.544524612649866,2344.261106325641,3581.8121423832285,3193.4566296272524,1223.893971254771,1034.9311025090346,892.4018253340973,3454.198597047945
1300.4997452598882,1322.7971549954202,1738.8130923701085,2767.121150634637,3132.4111548244973,3847.7560052890312,594.6734688034041,3734.96682743596,718.8266069420338,507.7283584973404,1849.0016558395616,2950.907349680964,4259.482495715475,2630.479936469498,1799.2621168418077,3717.1597910097394,2726.9176610039267,3679.261776621889,4419.147339394556,3026.143972033344,632.1012384114094,4000.1810196830606,1999.146131561428,1419.9328347809678,3501.6705603072187,2932.8953733018698,1724.3095243506546,1235.7384904999335,687.4848722579031,2808.7645913756032,873.9085593490433,3542.7581067025267,3582.2513512863966,2810.7462700701462,2294.23011020212,3316.844228984338,11.938164282109938,2370.832799012603,3478.244343250692,3223.8734681795268,1165.8417136992043,992.253556982675,932.0430165756852,3455.0526618496315
1435.23648440333,1322.248086866522,1795.7085773426584,2822.1418007939787,3195.686059061928,3831.806719961028,679.8498219778953,3678.311620402328,716.5683010498112,617.9630713534814,1714.9709990302397,2581.9245163119544,4266.798831805055,2640.793013407624,1912.6558492534527,3911.949560993413,2789.1390820014,3709.85623593,4394.483805676648,3048.9653823039434,606.8712889020551,3893.165098110069,1670.4862199360605,1395.568526181608,3384.234653716149,2765.343469223953,1684.957579501773,1222.7483037343286,702.1047025462074,2836.935871968571,873.7150717805182,3416.4593331594,3633.38565644373,2714.0264061368825,2298.843880022244,3330.197374145578,-35.41523783407774,2394.9209379278213,3396.991655726561,3254.8373512747694,1115.6256491603624,951.8763090075328,946.5997753286,3456.750290998998
1549.1178589926735,1318.1566736619593,1781.2881960954314,2885.6398518768783,3260.9680173498427,3803.036241013416,760.0171659262116,3578.70091106398,713.8933922963295,779.7337050108611,1594.6000005026112,2196.2996703724043,4273.678144632824,2653.1503332342104,2040.5469863354465,4033.6032121012777,2844.573725650169,3722.9817410717983,4351.806332808559,3072.9784637733355,579.6243116601313,3744.529048341567,1317.4655577872534,1370.993371389341,3267.827782802142,2624.387156640885,1664.6906511367938,1207.7029409590891,716.0788006269597,2869.432909848958,865.69718110488,3164.968222401974,3665.8616021820217,2577.8556116551367,2289.07293590742,3356.119551337506,-75.64084165896975,2421.8706115832497,3334.7258946211214,3286.354188427456,1078.817242929445,913.4985081339432,941.049135916382,3458.7790883920266
1636.5398107338538,1310.0646591134096,1766.0626509357176,2953.624460782529,3328.745859772427,3753.599124500233,836.6336450346962,3426.409580789629,711.0213784217176,986.1311624272688,1501.4008763187724,1824.429389169352,4280.082654398448,2667.368679306144,2166.541036344815,4074.673575372659,2890.142159994236,3722.093764044848,4306.044014249066,3063.065259610027,551.0828048306112,3562.103379079545,954.6602941384972,1344.655787392504,3154.8776168747227,2507.4033310862465,1668.8870888249528,1190.710806323782,730.0615743861858,2907.0530988087894,828.8233130828398,2790.2498503428355,3680.67546089584,2344.607903761191,2276.503771108925,3392.135819528302,-106.58193088227154,2461.111359770964,3285.187889103371,3318.521041928348,1058.7256752776525,876.1775512052495,922.8592022258528,3460.9171822733406
1697.5660886404771,1297.9615365130503,1751.5640868136215,3022.966149305199,3399.799665536706,3678.483470128739,913.6714440110612,3224.067243514258,707.7010905650186,1309.0862608627071,1442.9956192501058,1488.849496339555,4285.9760020266895,2683.357793109738,2272.8594959587977,4037.843449789847,2922.943712383614,3708.451202703613,4267.646108038478,3085.8027985846256,521.8547235734256,3361.6458300987524,603.4003863459907,1315.428499517875,3050.609916896577,2410.9124449312108,1696.4078011281763,1171.948406583051,744.0184928801141,2950.1447133168667,841.8316926416012,2336.979391909669,3681.401784134172,1998.04027659007,2266.988698358772,3434.957695289246,-127.54134741687812,2523.6485364582068,3242.0449077403423,3351.530039096083,1056.4188499185352,838.6136462409854,899.6184210054771,3463.500658684229
1737.121562707605,1282.1030120711669,1737.6952365518157,3092.2296024203715,3474.997281974177,3577.717808185542,996.1136039141454,2986.2588987326844,703.4192653493119,1560.94559339209,1419.366327559107,1199.6349994568177,4287.293150281877,2701.185618539123,2345.854927255872,3932.431993892224,2939.6397868689805,3681.9408065908738,4241.58613390533,3109.771630668278,492.3374094328137,3162.184134939352,291.7484544716831,1282.667023836426,2960.188567114696,2335.8632789538583,1741.4832699222134,1151.615059213584,757.4837061118803,2998.523245675794,916.3265518557856,1869.498362658276,3673.081726086793,1571.1007871179422,2259.8293579480696,3481.4538049294083,-139.3944943928227,2619.585343547681,3200.5865177019823,3385.6430217357283,1072.183717294747,799.5641769145252,877.2583624578842,3467.2997003515384
1762.0053616783075,1262.844365951078,1723.315106718138,3161.610663892889,3555.0587288787374,3454.8572102052403,1087.814632160329,2734.833173146444,697.6045375305048,1806.4144694088577,1424.0307230582994,954.5744766996502,4266.034538622369,2721.0641944851427,2379.524539361091,3772.265440390975,2937.5844510173806,3644.136150479481,4227.3730261588325,3134.851196672051,462.73531923205405,2980.305992568611,47.74710127643402,1246.1600446899351,2886.54069413357,2289.8183584435787,1795.4834680843148,1129.8838031587031,769.8591913855023,3051.770466480421,1074.7475849168472,1447.0375459575887,3660.9233584357457,1126.559635401561,2249.803557928859,3531.269548263929,-144.18814351679657,2758.121591882576,3158.165432119392,3421.116129573916,1107.929206792965,758.1688871746715,859.1912471926396,3473.1348443435554
1776.9096302409862,1240.599211027641,1706.874432840954,3232.4049900134373,3638.811819794578,3315.4655510775733,1189.3050341142373,2492.4354420990194,689.8173501128954,2030.971980264255,1446.8728816930156,745.384620764265,4173.851051018552,2743.226350467088,2376.0416237534346,3573.817416453075,2916.3245454662547,3599.1323071873667,4219.543675709663,3160.920412660816,433.1539539632372,2825.615258512791,-109.72289437647942,1206.1223997665406,2829.5428737120146,2284.6872949094645,1848.2594207911,1106.8607734599975,780.6358488256731,3109.6978894019217,1298.725150586362,1107.8908782161843,3649.239942968967,731.2230777407133,2230.645853596565,3592.461961635773,-144.4878340144228,2948.048299973282,3113.9942866898136,3458.208416362876,1173.2341752630036,714.1096397334247,846.3823131684567,3481.5983523364507
1781.3795076170009,1215.787395535206,1686.9255166411326,3306.478738391956,3718.7496050922105,3166.431961108905,1297.0623680803667,2277.1603329616887,680.2015519458205,2223.6038757466936,1477.19765372528,566.2015486851567,4040.832376237451,2767.848727456206,2343.9799358767423,3354.894914195252,2878.5644901985365,3550.9535849034155,4209.131032448348,3187.956759303784,403.6601855264128,2698.89934323291,-176.57145777058304,1163.1604584073743,2786.4613101484665,2331.1367529162844,1890.1992629806768,1081.586911143123,789.4369241970137,3172.7095946718764,1536.3353895536852,865.2658732894729,3640.851748291959,434.9495162171197,2198.693886449101,3681.145977544276,-142.73339857372957,3192.025786506474,3068.6667851618267,3497.2178618953467,1296.804387636322,667.6310835967786,837.9735812343185,3492.7763242295514
1769.5449193973395,1188.741717794797,1662.487951512147,3385.7085599393736,3778.2731313999575,3014.077469730926,1404.7531293141983,2099.85737361992,670.861202451912,2376.591691269211,1506.0577504297776,417.7141959976889,3858.93099552037,2795.068682136069,2295.2435241380454,3133.04162539724,2829.94635240071,3500.9334715259265,4186.55725677272,3216.1378509049114,374.2889117307543,2593.543252040137,-159.5109747636384,1118.1095618690915,2753.107085871282,2432.671813602461,1914.664016202028,1049.4765357248368,795.9468452830113,3241.695332235799,1727.854745717153,712.5518186019826,3636.9801475968616,259.7252980645733,2154.762290330749,3808.781132645163,-140.77882284575344,3476.6333338890868,3023.564231714139,3538.434455464609,1525.329988885639,619.3956683584768,832.0377063234762,3506.141155858761
1732.809485284013,1159.640289437648,1633.2212781745684,3471.404627632928,3796.34641176504,2860.548872381968,1505.3409172458348,1964.155437834916,667.6348000276371,2485.633783135484,1527.5425886350995,304.96348322132303,3645.050054244101,2825.017163466908,2241.786454436813,2923.338446961431,2776.856796889193,3448.477089581097,4144.904493363163,3245.8778963834347,345.2342944530453,2499.752330613839,-82.62347910373273,1071.8370663255691,2725.1033808496472,2581.581611460268,1919.4585727012093,1002.2804560339256,799.9417296383581,3317.351384033083,1829.2687337199395,632.6743637203988,3637.523093254124,199.46487017102183,2103.4910574322616,3970.004893234149,-139.68681663514965,3770.695873956963,2980.2740787218004,3582.126730634601,1896.0564890027963,570.2436081425271,826.3119852381315,3520.934529599115
1664.2688939818242,1128.4945278255584,1599.3623815634214,3563.662331626648,3756.814039734591,2703.7829238229806,1593.406705025336,1868.620164209589,680.0663941904879,2550.412461319475,1539.0750863571905,232.5715742194966,3393.729489461356,2857.881291380076,2193.0830388628106,2736.5744033717906,2755.975949618241,3394.4310704714435,4081.90896807924,3277.7549397431885,317.2646865189752,2410.014785505021,42.41054832230475,1025.065938596404,2698.909536273355,2756.8724547708075,1906.7243776863925,933.6633488785816,801.4130079815002,3399.7544078419296,1825.083913427288,605.9328565974947,3641.5362817758814,227.62656596395527,2051.2661550387743,4143.62602282714,-139.75853751593604,4035.708043380133,2940.1308279475666,3628.613797721048,2407.0214442377373,520.9400138653909,818.8595890661998,3536.5106843564995
1562.6464648406766,1095.248340458451,1561.5056793987749,3660.286494859789,3655.471818789402,2543.7100236451743,1667.5190679288653,1809.6460382184991,718.5301117082772,2574.8165648354066,1540.878991248314,201.17360464264607,3078.4595432671404,2893.973331341235,2154.864386569381,2578.565272149441,2677.3417530387023,3343.6733368806845,4000.0903170065576,3312.34970539223,291.8949176577776,2323.1587173876364,192.6681895194484,978.216254992774,2672.431167546334,2924.9889368698146,1881.6249642113976,844.7501949189173,801.0540540511774,3488.374526680941,1729.2293352012537,614.1659928737888,3647.7459698298494,308.2205968744447,2004.0413952834824,4302.626691358308,-140.72369087426569,4239.525728666997,2903.9595157182785,3678.193498372393,3010.4122041579512,471.9581942841244,808.5131928254389,3552.2474280856013
1433.7960482261915,1059.9277590198478,1520.354557392559,3756.02204413651,3501.7981412687222,2387.1781100431167,1731.3068015321974,1783.1629928108573,790.1963773994194,2566.526371415027,1534.9276393211708,206.18614772713045,2672.4542953795008,2933.7144114520734,2129.1105007672404,2351.159310967863,2538.713127879408,3304.477238175348,3905.442338994305,3350.064156074709,270.9719140840707,2244.591782258274,340.25628718984035,931.378575849296,2645.090051925172,3045.682372814169,1850.5736264492448,743.9726470704904,801.6481429133391,3581.21347752116,1576.141742836494,642.4093774507792,3654.964861986554,406.2128305564636,1965.886260896216,4424.428304740284,-141.8708872307002,4365.353415598576,2872.013453899155,3626.940616133205,3627.7718542125904,423.3855124851441,794.9871042795608,3567.572483325926
1289.68960756567,1022.641509400196,1476.5399098325593,3843.578965613537,3315.3106225112733,2246.1090890822243,1791.8627568685606,1784.0661570975008,896.0733178294813,2536.448671409192,1523.8601015521003,236.7767623301322,2174.319662772641,2978.2307670619207,2114.8658618718755,2252.4108444261005,2313.760881285859,3283.8896343565493,3805.391330327655,3391.0411801037963,255.95264787490805,2182.6861728154613,461.1817342296517,884.4214583544165,2617.422067484942,3082.607550013045,1819.623682854908,642.9298556701008,808.8090767886811,3673.416573946845,1406.534748539171,623.0220635638102,3662.345739498028,494.7846313770128,1938.5464560124249,4497.099097913837,-141.53912007757026,4413.874754506624,2844.0645163656204,3663.649872512135,4176.243618469111,375.12329155524185,778.7211898910757,3582.3553632896947
1145.7642125986013,983.4548341404676,1430.5080159616646,3916.1717781408593,3118.5928742076694,2132.2315869555146,1856.47373534124,1804.4846496425264,1029.965425256025,2497.715317396924,1510.2011155731657,335.7169584625465,1621.0896754404862,3031.023986182524,2109.3983610178484,2174.3831883898406,2010.216001791865,3281.459899537564,3706.890038704554,3435.2472165290405,247.74860852560823,2143.69965424594,543.3632615263857,837.1201703109496,2590.487381588162,3013.774513122543,1793.362650884038,551.9910383708705,828.9498991839771,3757.6730829729727,1253.993158926341,661.846576650016,3668.6097599159207,558.5943607055756,1921.784887863556,4520.452777813593,-135.95096407394567,4399.769024165972,2819.5864031947667,3666.146936960855,4593.694325064065,327.56181764633493,760.5797333930659,3597.129237267808
1017.3585345820484,942.3335121051562,1382.4620779042498,3969.816730971808,2930.467411924393,2052.554552288773,1930.0641569917047,1833.1573382318943,1179.4766401493162,2463.736310535688,1495.8974560457852,536.0200346927452,1078.059285883914,2997.9066701898146,2109.4028383461205,2106.44647637674,1667.721225172477,3286.331041653783,3614.332928957356,3482.632315943859,247.9520547575933,2127.4643184978813,587.7347104313178,789.2943824077524,2565.3811317410805,2836.901204715376,1774.421333230871,477.47697899427385,866.3374569555722,3826.69803646593,1136.9131411549592,698.0348455367553,3668.874111814581,593.4613438761635,1914.072416974825,4502.194394878566,-119.02306389863406,4345.266979786544,2797.961874858522,3615.6319683800734,4852.761297482051,282.2781730983936,741.481616958861,3612.592331422532
916.3175021012884,899.1799499533784,1332.3881351975974,4004.2808343736688,2762.024123008164,2007.1384056862669,2014.5233800098988,1856.6808221348483,1328.9807881708705,2445.951055657703,1482.0893430299925,853.0802432280586,613.9916292788994,3045.585767949938,2112.015265626032,2035.9134377303071,1338.4151049105085,3280.076656574321,3526.726918540866,3533.260163408987,260.50747018640845,2125.146953218156,604.4556890453478,740.8922567036959,2542.9796306604217,2568.210013905066,1763.5465232902272,420.8727751595636,922.5035336566297,3875.840292865146,1056.9419605434082,730.0248715812174,3651.530999708983,603.5864000163231,1913.299099579728,4450.548712928408,-84.21076002195605,4273.4122804688,2778.6732284901723,3511.886631484389,4961.471886552168,241.8682917550568,722.0892047811521,3628.602034585541
848.8934245402934,853.917674416693,1280.136225397207,4022.658448058592,2616.412782077443,1989.394963742526,2109.6388914176964,1861.98547945498,1463.5868859789057,2452.327874054106,1469.0687990020383,1237.6471062002324,278.15594919411546,3005.1374040665128,2115.4332049453697,1951.404926920984,1067.1434777131076,3243.239312223025,3437.8792523321995,3587.423852420736,291.57739723694294,2120.758088355366,607.5166787274215,691.9551082374162,2523.8922019812508,2236.764976960954,1760.0740026781405,379.86649382267296,997.8986964745138,3904.369839617392,1002.7905983082202,757.9339533654654,3600.873427200154,597.6804642216682,1917.3703194674567,4368.410386869531,-26.82036412796469,4200.498114408894,2761.4295983923093,3373.826875089502,4953.873540226876,208.91266269568268,703.5079778567626,3643.603911604804
815.1862046547578,806.6070269494528,1225.512588653563,4030.076406377704,2491.425870101149,1988.2615335459136,2214.4047979650745,1839.2155750633365,1572.4229667821862,2487.0914684011427,1456.4252644277908,1590.6629098197527,88.61835554316303,2820.4136035185875,2119.054629536236,1846.5942721099784,879.2892055866907,3162.1230287197723,3342.273651520933,3645.746740185124,346.90540058990223,2096.9516862431933,609.9172258010124,642.5834561411041,2508.541026819229,1878.3119676024285,1762.5722955344058,350.49620845988625,1093.545076858947,3915.2486467625945,957.3310945078854,782.6897642701451,3505.47294857803,585.267789722945,1924.6568432704223,4254.146059524776,54.980074528327805,4127.277543915711,2746.178631563001,3229.763832765846,4876.185358153484,184.9215860633836,690.6249586155177,3655.077127714713
809.7538547170736,757.4944557586832,1168.4190607630048,4032.1503982003096,2383.073823356713,1990.993780797516,2326.757968669377,1783.991171898248,1650.0665449570652,2551.686451511652,1443.3474244864433,1806.2367820809848,32.70647525938011,2487.9778393642587,2123.2019256429385,1722.1598116494242,777.8400392857554,3032.63689030749,3240.717536680728,3709.561384338148,428.3311180776095,2042.081411119128,620.6289881506161,593.0392105282781,2497.278541303872,1530.8254564369065,1769.4416179474224,329.1533335895447,1211.1643028951955,3913.8562987562696,905.7432439404396,805.35445381618,3365.397159190872,574.0644988689414,1934.2653148862032,4107.2662934007785,160.5250604048074,4122.8950738353815,2733.0117109479143,3106.471270521773,4773.537025095043,169.84605835549223,696.4070646139453,3660.597907731471
823.0584605462934,706.9361545514134,1108.9959495847163,4033.69260627944,2288.965749888798,1985.6851635395,2441.5487338358776,1698.5300544234408,1696.1676988333857,2645.606008640658,1428.913645878652,1812.832544040762,76.11543658765868,2059.7571474836427,2128.659404960852,1585.1330272261391,747.6502297962757,2859.6212604566604,3140.235395685347,3781.474363256599,532.0210328497094,1954.282107295511,643.6085728636672,544.0113859453586,2490.4016207122177,1230.0440354447892,1779.357635528549,313.48940932661367,1351.9971611193264,3906.338949536306,841.8527199776756,826.7241172933927,3193.2323798171333,568.7395297214819,1946.065669190568,3933.0613788655473,288.02481718515696,3933.0405841900574,2722.058981245394,3021.7543559325427,4680.601977483991,162.20848804838442,742.0042927286677,3658.765346711844
843.7862745597808,655.2504109598726,1047.6134576008335,4037.9439176172473,2210.5817473999014,1963.593784631669,2549.594352787317,1591.465392901367,1714.0330138251177,2764.640315099688,1412.291019885079,1599.3884702853948,175.63209698735204,1615.261571680821,2136.2854216986725,1446.499493957435,763.4368764383323,2653.160964119287,3050.1901709694766,3863.915316640467,649.7763329861821,1841.1950635364933,678.3760898007993,496.88152429314914,2488.0325741634374,1003.248650106023,1791.5249713998678,302.3009607246147,1515.5219984234295,3898.152947430298,769.6382289615435,847.1957755864985,3009.850859141005,570.8274112353245,1960.4793560619385,3743.14836250382,436.6158649439469,3576.894926800822,2713.435438428332,2981.7440811257734,4617.358372681554,159.64423060258946,849.9864137030445,3649.5860183219993
862.3565882672385,602.6084847275886,984.701373777893,4046.377826097028,2153.244939244912,1921.2274983443403,2639.9265863171013,1475.5926728425593,1708.7445975279677,2897.7212870034546,1392.9580739076532,1217.5010493054406,290.920337956145,1229.987150044156,2146.8014066332626,1318.1990596249775,798.2032712319415,2424.739721243827,2978.336960721102,3955.2340789554014,772.3648106494772,1716.7299050359327,721.4986552713287,453.6155115152819,2490.0117969318367,863.5215579176015,1805.7089578813664,295.0122883514971,1698.52184695792,3893.140739872978,699.7149872875841,866.8209328827368,2838.227836149182,579.3797169116292,1978.1755026532787,3551.833551309337,607.748849844611,3009.021939206157,2724.5829843173296,2982.182935355104,4589.498124085693,159.57543537325955,1030.1098994041597,3634.3211912244296
874.721767579691,549.0528145440435,920.5854955824092,4058.9591091044736,2123.2877112727047,1861.4981326600189,2703.728079291939,1363.5034562940402,1685.123702821646,3027.248611618128,1370.8874983487904,759.2207741801867,392.4954888289242,953.6154314779056,2160.716216601701,1210.2118985842085,829.7224822066748,2184.5633636981515,2928.4624240305484,4047.795833111303,893.0388326476539,1596.4649978123211,768.368214571901,416.1678618119959,2495.9138870525485,807.9594921728653,1822.0450254529744,291.2044426885177,1894.398653128669,3893.227204452348,643.7682829040918,885.4028498880284,2697.4057960655355,591.9379801457255,2099.8583378742496,3370.1737746411086,804.6433322072687,2265.0500725763814,2712.164030739448,3012.1859184784853,4591.976586470254,159.78713872432877,1281.05148032412,3614.995956500557
883.878132486753,494.5907844980834,860.7183989109151,4074.660414291977,2123.524045080615,1793.2838649129712,2737.229148269856,1263.2399896671875,1646.376344998909,3134.1730687339414,1346.4368057954034,323.1283890499235,464.7671187754306,802.1063322240439,2179.1682465033764,1127.680510658426,843.9593130762294,1940.8480704927088,2899.91751800198,4130.541514137079,1010.6121861866188,1492.6832999464748,814.6358606311017,385.7785213429461,2505.182094727297,820.5587461795437,1840.7903903390088,290.350991421519,2093.319907998715,3898.633963299455,609.9834073852364,902.570997235158,2597.907799442096,605.5496092972019,2112.9468076350654,3202.051203740204,1030.5862241531413,1449.5791837642455,2682.246603415202,3058.649712910659,4613.8858272366015,158.77571889269552,1590.2599653970235,3593.812159017861
897.3861516338479,439.24228510993726,829.9223616078507,4092.0362974801446,2149.4323926603392,1728.9528742259586,2742.4152503222854,1176.645510134912,1594.420585403703,3204.139609860858,1320.0498587153377,-14.748444053999949,363.4576659154991,761.6252939653973,2206.173449566615,1068.9143577871523,835.5579509929591,1702.2569317022392,2888.61085651802,4191.771767983337,1131.7133611841723,1410.4933892741246,857.0971382767298,362.58269153186507,2517.2908954605764,877.9957602497134,1862.3000465265288,291.7605981211,2283.729620420337,3908.407875997792,600.8857922270695,917.9230321914464,2539.861043749649,617.6984910056258,2130.183356621054,3045.2388895548547,1286.421237941459,688.7933035286126,2622.923169966641,3109.885753046082,4643.081544623844,155.8425418021368,1940.402357996352,3572.657569560713
922.2909427666536,382.8010352847916,874.4941903884317,4109.7024500786,2188.2124761009104,1584.8393565791707,2725.881851019525,1100.8533519028792,1531.5900170148116,3231.2840613317794,1292.1159373061184,-216.05356769183936,378.28748659896,799.3402742267695,2057.7971421529214,1026.753110881953,806.2035005369232,1481.377331836452,2888.71590748191,4217.445676327168,1270.6583792483727,1346.8912643889712,894.2329606946314,345.651336066976,2531.8497013863257,955.9532135009374,1887.1218214558785,294.6551745237812,2454.558955634063,3919.819087397772,613.5623315863227,931.164604072688,2513.953076817508,626.9199307673816,2151.468069222355,2895.448979476392,1565.9122839697732,85.38526820920674,2532.063313404566,3157.8399052586824,4669.55125193729,150.9815481735584,2316.223839612221,3552.815721846397
960.7367900146288,324.3700430599006,1034.346067399937,4126.638573209857,2220.9872590977925,1563.4898101705598,2696.623163330258,1031.386433684349,1462.524441095946,3218.702209513175,1262.9678936569862,-280.663001760458,376.11296629507615,875.9784040689858,2119.393308564541,993.3861347352032,761.8229860646927,1294.4764546224487,2894.396043838996,4189.035524898284,1445.9483849513945,1293.7291338309078,926.1520033790504,333.3481227012023,2548.642899826545,1034.1581845574997,1915.8353793672125,298.298872565633,2597.473958680851,3924.59757072778,641.445359437758,942.0951597362778,2504.520294564004,632.8876182394617,2176.5796356436454,2749.6357548108244,1851.7746204812672,-307.34189524636804,2420.2130980094967,3198.785382548146,4686.921898170991,144.64772324452497,2706.248118064139,3534.893886181864
1008.5218941887088,262.83752444298693,1312.0509724925323,4142.301531408637,2226.909939365161,1565.3982717679933,2663.614693454532,965.3768855964288,1395.2906581261395,3176.201934553235,1232.8363952068255,-236.90294428714287,366.8533935053856,956.4226121369812,2202.277059598773,964.7524083411844,709.637265790484,1156.64465152742,2901.054379697713,4088.9191970193287,1674.7222227429488,1243.251503612858,953.7093347021398,323.8108568774285,2567.5964531376258,1099.2074624128438,1948.754945568428,302.1114938968108,2709.5060624524326,3905.681869394685,676.6674514615452,950.5871254103084,2494.282364389346,636.08664974778,2205.2734563735125,2607.241354021818,2118.308048131515,-489.6112970703057,2306.42620163266,3232.8317276492794,4690.103888820728,137.49672852832057,3097.045112902466,3518.923985794889
1056.6509156747934,198.6288912158745,1669.162770990458,4156.584978326587,2188.107256680039,1585.2443121442475,2633.9809681782776,903.4504998743752,1341.0162143519942,3116.7019803112307,1201.8023573987962,-127.24881352857436,358.3447342169777,1016.343216898237,2299.925122556555,941.4135478397892,655.8996611487389,1076.2073390532903,2905.9257884541285,3910.568915931152,1965.9674036934744,1192.2816124685532,977.54844005671,315.38519358301573,2588.6698801883813,1145.1134574843009,1985.8371213977816,305.9673962101276,2795.104572725871,3842.014861380716,712.1166259637655,956.6644295097736,2469.590504337384,637.3615996576489,2237.331880905167,2469.8128416253926,2340.1337345074808,-503.0433670334805,2211.4430265760548,3264.600278316072,4667.712872784948,130.16527784723235,3467.357690689839,3504.560979800864
1094.5965977481414,134.6965096460574,2044.8383181473407,4169.686452886859,2094.1793871564114,1615.1581360858536,2612.1202061351587,849.1107494355883,1311.7370140980297,3052.611922506387,1169.812289693851,5.4297581871364855,355.2072807962584,1044.3969949185298,2403.0281253761773,926.5385331675528,604.689818039712,1052.0066002957617,2908.114430190808,3663.6758736956017,2312.0399420616,1142.1771132295426,997.847814187614,306.90494152873225,2611.749545223164,1172.0564684643991,2026.7594631967647,311.69110872475017,2865.2586826678867,3719.703614321034,742.7064236987524,960.5228510578424,2424.076717117932,637.5322275291096,2272.591633633964,2339.893957068609,2500.674494086535,-410.7120540858541,2151.7173166548605,3306.2462124265253,4596.70000491813,123.13031460367095,3790.508343584089,3491.302169275815
1113.5552702541522,75.49790808801686,2379.301615960195,4181.944985160094,1944.284754744588,1648.2690082589068,2599.678301096804,771.9565814190378,1316.8562150216485,2993.175111126748,1136.7543217319587,127.83859919012184,358.816335983164,1040.6699616290025,2503.026488205347,923.2621355961368,557.7177556915276,1074.2403642311976,2908.194069855332,3371.530605100156,2683.566701150121,1096.136508296304,1014.5910662231486,297.7879150448284,2636.6361464485312,1184.160895174468,2071.0252681697334,326.25459501339174,2933.728966056949,3539.5592805919937,765.843824061026,962.4298818261254,2358.913637817505,637.1405025873305,2310.9714261167983,2220.1983153852466,2596.2337206132115,-277.20440659656424,2135.8399373926472,3375.1866861069707,4449.086751597095,116.65416317117706,4043.289539855256,3478.669523267585
1108.6793882118673,25.117111273334103,2630.9232950013698,4193.698449276642,1746.9657993951164,1680.3757930666115,2596.0984526880607,745.4431763450002,1398.4054719774758,2943.4280701105586,1102.5547233380416,220.8986662905918,368.0917557014316,1012.5167927036964,2594.4894465421385,932.9059661475352,514.853916030539,1127.6858702633417,2907.5306741272093,3064.6812160582813,3035.7213811467823,1057.0154300414335,1027.804902755891,287.97487799196983,2663.1346979969544,1187.1624940428785,2118.083631345824,363.7470054004525,3012.9267643093303,3316.288555908649,781.2243398256635,962.5911261325344,2279.5752660721178,636.3328573755375,2352.4961545377246,2113.040040562857,2635.441258583059,-153.93256795919524,2163.4303419632784,3481.977319977659,4206.381009246086,110.80005962286624,4213.938688748838,3466.324239385672
1080.3485495671748,-14.13305687556067,2782.83034079838,4205.067191593165,1519.9149283192496,1709.501041823583,2599.466538219861,733.150940362026,1449.8599337534106,2904.680735033261,1067.2163745782852,279.2590592587162,380.6714938110631,969.3963243578356,2676.033591191047,954.4324609331696,474.8994989622447,1195.770676953961,2939.277297934515,2773.941355363949,3323.846590339087,1026.444360402384,1037.604295013055,277.7713447671945,2691.1591321661176,1186.5186918577233,2167.448995699174,441.94207847037706,3111.957118272965,3072.1191634461434,790.1124512923541,961.0860691104632,2191.370403626104,634.9101273753326,2397.2732136898817,2019.3621681579448,2635.321160551068,-71.86226100532576,2225.9788602896538,3620.169049675327,3868.820584757238,105.49079551272484,4305.0243768686005,3454.108781562174
1034.2488497944948,-42.19113340432068,2840.416988701932,4214.426137047103,1288.8373646014293,1734.8429059513985,2607.411467184452,732.7209503425956,1461.1484137520022,2875.674818426137,1030.8398218601133,307.58616964703083,393.9594673647225,919.1899201643056,2749.934855267514,984.868759593365,438.1638890749416,1264.183142224962,2935.0960714180783,2523.648186062086,3518.107601052424,1004.5603900410008,1044.16704062587,267.6583192161904,2720.806933900149,1186.178892632057,2218.7658984232494,574.317447199679,3236.8708837497124,2828.874233009598,794.4470168027729,957.9144781604032,2055.410309671117,632.5772133786995,2445.4518835596086,1937.625516968057,2615.728287527213,-41.21402635532832,2309.639565369021,3766.940770169928,3454.779659231279,100.58188827420396,4331.265783719531,3442.030474584166
979.7373061854794,-60.91106270885575,2823.2449959272485,4214.1539386230015,1082.4247953350718,1756.1563959523164,2617.886158506368,740.2470705721641,1388.1537100670898,2853.769498297044,993.659351393756,315.8661573827092,405.8131126941803,867.453077092712,2820.632807128114,1020.238705286498,413.4260514414416,1323.130450252732,2933.5233665435285,2326.331356570006,3610.359888527253,990.0444931909558,1047.7191636536731,258.12548767699604,2752.6453427778533,1188.0857619019434,2271.809189204659,763.357863734472,3389.322038860909,2601.6951261153563,796.12530349487,953.0577881798536,1956.491595348815,629.2272710579607,2497.253501258024,1863.4206509922865,2594.2381638087745,-56.06745884024304,2399.8313481111886,3888.947641720626,2993.857525932468,97.25525195659634,4314.27534656625,3430.210084466601
927.2561669083284,-73.25316013914608,2755.369373854977,4187.349306653155,924.5047635346718,1773.388997116652,2629.6194121375183,751.3771329834758,1219.5973529956575,2835.9818621904333,955.990551670443,315.1773850220925,414.9003378092618,818.1226338701856,2892.9105059903363,1056.5691736475014,423.3829997506796,1367.9335907367408,2934.792061901519,2180.7696628240888,3612.7489430476817,980.4921489129216,1048.536984254593,249.5583747230255,2788.327397263148,1192.3452476391024,2326.495276789365,999.673380974078,3562.480274327222,2397.027876498192,796.5899279648561,946.4811040121426,1850.251599867304,624.9818001793997,2553.0120730510585,1790.2379309819485,2582.988157975238,-101.23260153003594,2485.4539993693115,3950.1662344942015,2519.0894530442006,102.87679419931555,4276.418851967608,3418.8194761626573
885.9407665434053,-82.37527045745946,2657.861763332424,4112.340398395271,827.8422232669514,1786.2667273424947,2642.135151399811,762.22226610712,980.2957937337092,2819.804082014856,870.8973415480368,314.68507219321964,420.7715315099058,773.8083909121617,2970.616013423348,1090.6873634103783,498.127599089572,1398.2527585043958,2938.778242215194,2074.276638046676,3550.8613007474187,973.0919037843493,1046.912756276913,242.80499206802887,2830.5515198257926,1197.811359658918,2382.9501241661583,1266.593428247233,3739.829731306826,2215.003934324542,796.6695373500866,938.120044133514,1734.928463279799,638.694559013464,2613.143483728983,1711.1813086551765,2579.80587906037,-159.0324178112728,2559.9829511924613,3923.283290102484,2063.1062460766325,136.2638149448826,4235.207356060081,3408.027085476697
861.7220409746903,-90.90437831481267,2545.536633825493,3973.817888087407,792.300560214785,1794.1483491596105,2655.5281901823355,769.8962855012815,715.3065164254276,2803.7009839615685,832.4284161396142,320.10050436724464,423.68409539491904,735.6424427607885,3056.006490846938,1120.6757948062775,659.0134337232171,1416.596678964947,2945.1669945006265,1987.688022533705,3455.047605193592,965.3532518930444,1043.0834197524755,242.7819206131476,2881.616150331048,1202.780939183158,2441.5596742998987,1546.8952794070349,3900.18760075507,2053.493525258976,796.5973883719357,927.8672640930964,1609.521792118548,671.2521728569375,2678.0294157042545,1620.994188025575,2646.206645687176,-213.0589598602296,2619.963949588271,3799.872626774541,1657.7600685176722,226.40250101676088,4199.48587652691,3397.9618352867883
856.6099082183448,-100.52942868396713,2427.239937499558,3771.540777949579,719.0296006847973,1796.5593526086604,2670.377487716678,772.8001848303818,470.8204290358299,2787.201620813244,853.8102559123863,333.4848159397648,424.2890396843529,703.2969996050683,3149.7388452249893,1145.902525025752,905.4506222749015,1426.7387700518748,2953.5796771358773,1901.074724677498,3352.8192676617573,955.5434919706186,1037.212692248536,265.42296330920226,2941.8467241334606,1205.6052724995147,2502.974350688089,1828.691123055778,4025.2136470397,1911.277654172781,796.1591089075846,915.5579215421606,1476.066850287577,795.9877619013166,2747.788240444672,1517.9661275106282,2517.1111087272548,-245.2490292537668,2579.6781785934872,3592.68313564436,1331.4972389560455,403.99220002471407,4168.9830397183005,3388.6981316104216
869.786645385565,-111.92591660342076,2307.79786490655,3520.9817252780067,794.9489743666527,1794.0278844817944,2688.020827138311,770.6597958787056,280.2111006332507,2770.643171711941,1030.3551259728206,354.0183615914402,423.3365240452247,675.3590661444712,3251.5043498353207,1166.6970135171457,1212.5157151500568,1432.416687640096,2963.693258385306,1799.2456207514615,3263.930585236949,942.7605266722358,1029.4105945454617,340.27407820966846,3009.3590727998653,1205.1025245583924,2568.0523428753363,2108.706450695042,4104.505840145273,1789.3144159266076,794.9009223609385,901.022063611386,1341.922471210297,1057.7655309260217,2822.1196218497244,1405.436737120309,2293.436915194763,-228.24647174003803,2608.691533046782,3330.0628372742704,1102.9760886638728,690.942557924483,4137.339890393326,3379.644716647556
899.4713828955905,-124.93326905528328,2190.302782888698,3247.392765613885,944.721891796006,1788.20108981545,2710.584904654801,764.2097242507853,157.9103893173883,2754.787477026232,1437.8118613125205,379.1737360158147,421.4847361718919,649.9122154053503,3359.5907369883253,1183.8933148342037,1539.005541990991,1436.463172485536,2975.3299517626133,1675.2924560363242,3198.590446139462,926.7854481365104,1019.6984838965634,501.42793543334506,3081.0746599646104,1200.711572914086,2637.6605085982496,2390.3545918739146,4136.082857206426,1689.871505082528,792.337011452541,884.1941270031648,1219.4234945108906,1453.7158788054264,2900.480840718941,1292.02672816116,2054.934082375968,-123.08466940507653,2620.226215963812,3046.23029071832,975.8205559183496,1090.54835633561,4096.532630439013,3365.0472779888805
944.7664587739866,-138.8664225473649,2077.7005496602133,2977.3052436985263,1179.2606072430622,1781.163699924367,2740.0112409652243,754.6520344867906,100.3410609361258,2740.4934069550427,2066.4458903885625,405.8656508156739,419.2014555487695,625.0966772732922,3468.0798391727512,1198.4116625280371,1840.3269372935663,1440.3795038784508,2988.481465494345,1530.7489156767615,3158.376511083204,907.8902927163632,1007.9822558271932,772.2071571717099,3154.1234424974527,1192.4135129458837,2712.39171072656,2674.943153079092,4129.851814473404,1614.4662147466604,788.1042400095805,865.1692337564002,1122.0313162415705,1932.7936493646084,2982.5198015758824,1189.670387504103,1916.582160513024,111.92856311413198,2610.819163368002,2771.0883048616047,938.309371322962,1579.2407683978622,4040.5207570961634,3318.758524036428
1007.974271441429,-152.8465279702291,1974.3965404792696,2730.865627422448,1482.915846487896,1774.6528085640143,2776.772543024377,743.1842521387225,91.42918562353134,2728.605659955755,2821.5897108078816,431.3752983872637,416.7302391087742,599.5057311944947,3565.8269591027283,1210.982996501159,2080.050458285082,1444.3490136666896,3003.257534850364,1374.462342389128,3138.837863327028,886.698376823123,994.1233954323832,1154.768129729788,3226.90458077719,1180.5121612261337,2792.3940233503417,2952.155295654553,4079.171830497808,1562.300197305923,781.9735982254272,844.1709961905933,1059.4923466107607,2420.5345399642893,3068.4593392378365,1109.8721863502733,1948.484566161105,504.4860592477437,2574.68254760623,2523.1580784621947,967.6510733207012,2105.2073824568783,3967.312462618475,3177.9368545595853
