0,1,2,3,4,5,6,7,8,9,10,11,12,13,14,15,16,17,18,19,20,21,22,23,24,25,26,27,28,29,30,31,32,33,34,35,36,37,38,39,40,41,42,43
1643.5381030608178,2405.399520596842,1889.861978360452,1443.7081462039262,908.1822290932644,868.4992545370244,423.98587626297535,1584.6021300704194,2741.238518726416,3173.189455680328,3269.781805991264,2145.330132674754,2830.95584622011,1680.7682907711014,2215.2280650481707,2784.4070720138134,2277.559383100119,-141.14228517703987,573.3989636420581,2034.891622182446,2625.008129573147,2176.635465907827,1586.4143407618797,1185.5412550285378,3306.0817265468863,621.067397500043,3076.200706178224,2356.741026337124,1615.8404185404193,3346.127096178717,4344.446468146241,2442.930864459062,4344.446468146241,3009.0292934363824,812.7213821448345,747.1540251252247,2788.7986879217224,1451.6447808163402,926.0253048225192,2945.197252643129,2637.313684048365,2870.501274885668,3248.357674369796,1283.514350984162
1676.1873627635948,2577.556852694431,1805.2959837576816,1360.6053091617678,825.8885446453721,1180.9445694915742,335.93596796117777,1557.4021602332268,2512.597837782031,2866.499509251669,3488.909917996995,2344.3951180831973,2830.1239511101708,1885.4177494674568,2098.638298057302,2925.9451977703347,2121.628930981312,-191.5526682339432,543.7628002521151,2024.5332521841635,2437.1157617549675,2093.2294533248305,1431.8959556516952,1136.482729489995,3143.859768011338,596.4472868591834,3069.448506756892,2368.99902660146,1489.3734510289146,3380.3307420625106,4361.977223173725,2452.5457263119883,4361.977223173725,3065.162252657876,1324.43332841163,757.172689900467,2827.443969984709,1533.4711884161916,1015.4776952039314,2875.2393349143726,2577.1864411194515,2904.20637961458,3127.096366272631,1259.1399300499131
1709.704545608976,2729.3514238005346,1723.126471289775,1334.939063888994,773.0104860660972,1451.9024602499412,297.41775004836904,1554.3501559478575,2309.559674728629,2543.4571099195937,3703.292349887121,2586.129816592734,2830.566327801253,2128.573545866536,2001.694553193762,2998.310562994056,1959.9856859982367,-195.3756754880924,505.8641893952945,2013.2547957870288,2258.1514551333307,2016.0130198292488,1285.051877862924,1082.7635408830406,3006.432672890518,579.5836910445157,3064.166882078977,2368.51388894382,1397.8066457991688,3417.2976940994963,4331.916341800366,2465.347867024333,4331.916341800366,3124.50160969376,1998.130644705344,761.3575830552825,2865.467003406556,1624.7015122631185,1080.352934367408,2837.119362136092,2531.7803800749625,2940.7932664344125,3024.4115016270744,1229.8225839192355
1734.7899410757896,2852.326577922466,1647.5173605715336,1363.3903792932217,743.6120801169841,1639.9848278626926,296.5712709910865,1569.70932456735,2145.5719090485923,2217.833312533459,3887.571499408694,2808.4067087108456,2831.146085165801,2377.2882902157,1930.1530478200373,2995.456650201355,1781.9521679152826,-160.9504124767186,475.102958817705,1985.8115151903453,2118.063411267012,1941.147168504748,1160.6714676814138,1028.6685557093238,2895.96054217704,588.7792775158177,3060.2626401972966,2349.5105171073383,1333.2763809751018,3457.3212455180283,4278.0484854599945,2480.6934121777385,4278.0484854599945,3184.375085862849,2747.402734173792,761.7630523569337,2902.709640998904,1723.578265619312,1110.944924513844,2821.9102310696053,2501.9996941361123,2980.420134614021,2948.46958116156,1196.1575076537297
1743.5528743804437,2937.167642263501,1581.817667070186,1434.853363829157,730.3859052756416,1722.575695126371,324.6042675054896,1595.1875596697562,2024.34283448984,1902.923952498665,4017.376535543463,2963.349483031767,2831.603506698663,2598.417379004506,1884.3051605346443,2927.8180658845527,1583.1498318711856,-101.13365177168087,466.4593302846388,1932.7296472996777,2041.79450411176,1864.736321507688,1069.9004976011688,976.5947108823152,2807.7934076819893,651.4914177963062,3057.7791353313314,2309.911247209337,1289.6812628452735,3500.798698285351,4221.244477412871,2498.190209398762,4221.244477412871,3243.067389467197,3459.64444086043,760.2529501353888,2939.6908725462786,1832.4452685112933,1108.7670069761662,2818.68473977559,2485.434178430372,3023.2609375265283,2899.474952403666,1159.3258804270722
1731.7016443725092,2977.3657691368417,1528.165762341083,1532.8041742249534,725.896020768291,1697.6025502877676,383.08329812505895,1622.3059388114611,1942.2196872667544,1611.7466924403225,4072.69240184184,3029.5197287124274,2832.301496736021,2766.5227432002566,1860.5075127877533,2816.84426598852,1367.348816830252,-29.53096596817295,487.2732655919265,1853.950042205496,2039.2718513914083,1785.3307781774697,1017.0242252310574,927.1706235295068,2733.0525122839467,791.6527373008776,3056.863877913976,2253.868542200225,1263.2962249629918,3548.166863339048,4175.763460616583,2517.7761341999294,4175.763460616583,3300.251249987825,4036.4020446047953,758.1117749778261,2977.3139413425088,1954.7076096816545,1082.3704230606386,2817.7837354531466,2478.04261163412,3069.416595022305,2872.771422623283,1120.6210893797372
1700.068174597916,2974.316276693868,1487.1188591323155,1638.0797436442872,723.7395377766352,1581.2803155339234,485.1780504856372,1643.93047765444,1891.9942434105008,1357.3892130862605,4043.032078812345,3012.5170391257484,2833.935024068999,2868.1560134495794,1853.436974088352,2688.316198377158,1145.4626009952071,42.55450470811047,535.3250463325385,1757.606798214469,2100.9295504764127,1706.7235326349223,998.9889248292887,879.8011244003249,2662.487379555851,1015.4748184638138,3057.8063548379605,2190.3796881373173,1251.7890046758043,3599.795427707542,4148.204263450672,2539.599270668255,4148.204263450672,3356.748741532775,4420.413528315517,755.976014024131,3016.5627972213406,2090.908900424348,1042.841247094554,2812.7730510691936,2475.703701085497,3118.868909569136,2861.7103533422337,1080.9993162419537
1654.9720203112097,2937.811547445485,1457.820885147904,1794.23937221582,719.3467828739476,1402.449563018422,649.5312349116339,1655.13270694725,1866.0118294374752,1151.2551109784426,3932.347350357907,2937.259214366749,2837.312051039247,2902.534533763632,1857.7321806012064,2565.9330610520947,932.6365240061084,108.0692815962393,601.8315895003184,1655.5138019966864,2201.94025329131,1638.4644988291473,1007.1960782642856,833.2576521196524,2589.766367166623,1305.6272563598986,3060.959137331009,2129.768326666287,1252.7354887242095,3574.1617417432017,4138.555346942346,2563.7653821889767,4138.555346942346,3413.7850018294807,4603.403400442201,753.9816239008474,3058.314222742363,2236.4470855082795,1000.1942444340076,2800.9760526620776,2475.276851771436,3171.5619674356385,2859.442540205837,1040.9124932494312
1607.1723297814888,2882.4727853745408,1438.276914622737,1867.249386134661,710.2947073488124,1193.9895977248934,890.2519336273417,1653.7844830629851,1857.468165529708,999.9259458741872,3759.5142822691614,2836.7287788294,2843.221321184232,2879.3596681037543,1868.3808449723488,2466.399541727169,744.6094526187846,164.8177221790561,676.1243441454205,1558.5693271177597,2311.977643992232,1592.4250211175558,1030.520225667377,786.1415518667084,2512.614365582022,1625.583329168349,3066.517854344423,2080.4644931304824,1262.6724105051112,3639.946300567005,4142.440604112744,2590.240522179487,4142.440604112744,3472.4467869705204,4617.831108408656,751.9338273398921,3103.2833952982965,2382.7698845023783,962.1611114651082,2782.894167479149,2475.032101477332,3227.676137677563,2860.2253146667435,1000.4217719215889
1568.848016284404,2823.258955223855,1425.3917162272037,1904.4342334634016,696.115252744584,984.4203502110656,1209.106379252412,1640.619250810186,1860.2980282263336,903.2973262799384,3553.3168238116014,2742.0846346391627,2852.205043481953,2815.157901314796,1880.1623532895765,2396.57547015361,594.3507507106435,214.5916588934533,749.6755584980951,1474.0814793810248,2404.876882203749,1576.012371272678,1058.2924769950428,737.250654881482,2432.0224509116924,1929.801550520292,3074.4302268557617,2047.1830192692703,1277.162064916643,3719.807884712544,4149.399070960171,2617.7173855354845,4149.399070960171,3533.550211140833,4519.761824704146,749.4745485351411,3151.930273414692,2521.324312206585,936.5874905213244,2760.9498800816764,2474.5248726419304,3287.7865932430705,2860.303281988125,959.4035958406446
1548.9629329155648,2771.9699715693496,1415.5903696355983,1904.4735726843544,677.7315605308706,792.9331733402387,1594.2793304109996,1618.4649631385269,1868.5008608944684,855.4321261423154,3344.4198988462963,2676.852383391217,2864.280219553164,2729.837053227496,1887.1318383441464,2408.809310835437,489.67001766328144,261.44427454256834,818.3540424527473,1404.548753357985,2464.6263113367504,1584.372400717374,1082.339636826688,685.8632128788267,2351.0043333557664,2175.043825287729,3084.490629485295,2030.6399381109893,1291.6420919416216,3814.820592058974,4133.864062414645,2639.6148197646344,4133.864062414645,3596.0280625521955,4370.24001743239,746.2597759307073,3204.310902896674,2647.33267603779,934.4689141116114,2738.05091993342,2474.343799637651,3352.412764294119,2858.103884945788,917.731016018006
1549.7220307393634,2735.5044045214454,1406.6186846002138,1873.002242343116,656.692484316598,628.4978649568525,2024.5224635391385,1590.9912885424435,1875.8378792429248,847.2626027940184,3158.394906307537,2654.6178509161355,2878.9878012803374,2644.1748642144985,1882.93654569638,2376.203484911351,432.1670060210929,309.74038594697345,882.1982891970883,1347.6042975279674,2486.909956080423,1599.2325861052866,1100.7714241818358,631.7869689074064,2273.817945696475,2330.167502943047,3096.4581946788103,2028.3575886067888,1302.7541012352726,3918.2623405265767,4055.9212656004383,2641.69871314613,4055.9212656004383,3651.912245834221,4220.563808271878,742.0692703944269,3260.0755009336563,2760.90437856175,968.5624555393129,2716.6262901941504,2475.5614001636777,3421.444766326183,2853.8290308926325,875.3046309246158
1566.610473808687,2715.784644590117,1399.0237589464257,1820.06428188228,634.3889398756398,492.027132371521,2472.6115055989794,1561.5201587707215,1876.7612630095143,869.3604107533865,3011.9987295106093,2678.718627070757,2895.767280004134,2577.580163981924,1862.0351965105144,2342.7333364127967,417.4930813075589,361.7386978708739,943.0622951426294,1297.8695081796495,2477.1344863763,1598.9671276602355,1126.3671623948974,575.1960919251574,2205.0853872893067,2381.8433285659085,3109.1999831547687,2036.0483568828413,1309.8671715263313,4017.8073593173135,3885.136600332001,2609.058563867917,3885.136600332001,3682.628660709351,4104.084997514861,736.7928936969993,3318.6648230496803,2865.0221158717104,1048.3505563409915,2698.411428599825,2477.6160652633325,3494.385397375487,2848.762274872014,831.917263010602
1591.297477230782,2710.851426487674,1395.4400571692622,1756.4807112592662,611.590006769778,380.3214931297682,2905.136483060232,1532.246937138569,1867.86462843329,913.6163129122524,2912.402174950481,2743.1186711983987,2914.2296332338888,2545.261612163999,1821.106674595635,2294.4104356789776,436.7187066101685,415.4720392492604,1002.3415343987732,1250.2180395240775,2446.5271854717093,1570.4226342986606,1189.2256035897476,516.512145671926,2148.196259357466,2334.079199789593,3118.422173764314,2049.1173978453176,1315.720082727933,4100.585195203309,3623.796424287436,2565.2402182165047,3623.796424287436,3663.722970477341,4034.626409824805,730.3722998428593,3379.5003942652384,2961.575583272578,1176.2926495619913,2684.5281190598075,2476.119159766813,3570.7161351106643,2844.591321948663,787.2093997710335
1614.782196367755,2716.577221869675,1398.4636092743483,1690.8007789429223,590.2402420970577,289.84962920484963,3284.0407027295264,1503.9728167563817,1848.3384970423592,973.6743305189492,2858.4650996804303,2833.718921049044,2934.1685195354225,2555.1028951425005,1759.5267954927303,2223.0035398382,479.04838568921673,465.4163111174316,1060.627111323033,1202.2574692157916,2407.9345477140496,1512.3480421683016,1322.4762737719168,456.3467151431098,2103.734130726006,2203.1367578845625,3116.962934799085,2063.8354489514386,1325.2372703537849,4156.991256215227,3305.713379131369,2499.78669171851,3305.713379131369,3575.521238091501,4009.892188303791,722.7968676547125,3442.049364452498,3048.052295045922,1347.256795165305,2675.456289443695,2464.522213201926,3649.265498462846,2842.8819799259845,740.8734693647154
1629.6312003223825,2728.3853248683386,1409.109137859211,1628.1293753547238,580.302555965716,217.96170354162223,3574.497472855924,1476.3096072650212,1819.094722687793,1044.5156768028585,2843.116436363878,2930.3313006172066,2955.519608480672,2606.079523440926,1678.705347380579,2127.4451301043937,536.1780856380417,506.1322776745228,1118.5184119357596,1154.7718606178707,2372.591326476027,1431.7006481205672,1542.5876138675208,395.3684142106947,2069.0249383525484,2011.992597405184,3099.9305643428625,2077.9395052080936,1343.197941342028,4182.328695334933,2978.280377587311,2502.4597333368274,2978.280377587311,3411.420372901813,4017.508556008649,714.1372994467938,3506.043530011661,3117.7000560941165,1550.006842996912,2670.997763736744,2438.7556255124973,3727.187687585831,2844.7648270139625,692.8917954810524
1631.6213602084113,2742.4984377729525,1426.4644617144336,1570.721393162202,606.9785973091193,161.27495946583326,3755.060213852668,1448.2126216883808,1781.4315762287583,1121.5018817844823,2855.199218302924,3010.672014093774,2978.405412938998,2689.722817292394,1581.1985488026494,2013.17417621795,606.092865859076,535.4664078757605,1176.506835526194,1110.7228542095804,2366.221718036522,1338.5192183837437,1841.018348981532,334.13577300850875,2039.20271662687,1786.5664681474905,3068.421881575214,2090.6731883899915,1372.0411133667058,4176.28932927785,2684.237550934414,2625.6299641708783,2684.237550934414,3179.8743094282227,4041.430101231289,704.5483359677064,3571.904706260896,3162.9812681252097,1769.6830669375156,2670.4668622532417,2399.735943591935,3795.904506517119,2850.8177558489524,643.5955475699413
1620.4229371891638,2756.6105399078224,1448.1333011354425,1519.5215262240336,706.7675834478644,114.51780949688624,3823.517830070601,1418.545197072169,1736.4364643967983,1199.1879850208402,2880.277162894608,3055.6828911429616,3003.149349836716,2793.463340633298,1470.2644864910258,1890.5245398005663,692.5830698402692,572.842102825186,1233.3641694249525,1074.0041431428117,2354.7094981057417,1242.9313450827285,2187.8818382102004,273.0053245267072,2009.5176240468124,1552.842206319582,3027.612461341188,2102.426343210715,1410.5073150484482,4140.560928306663,2451.169850712414,2874.8533624764223,2451.169850712414,2900.949082461883,4063.292904836992,694.2005779693345,3640.82150363595,3179.391237333366,1990.570094225519,2673.188755886468,2351.910213508103,3831.279989919232,2861.058192324049,593.5477410700075
1599.060499873612,2770.0239878403427,1471.026882258012,1476.0812519033875,911.1617274021912,72.26469588090617,3796.001054130196,1386.4231188701506,1685.326042032431,1270.698988987118,2902.4821964266976,2945.9304229538147,3030.1705241639934,2903.650894041536,1349.8950069841394,1772.374345858462,800.8003048111761,588.6260019396329,1285.0301733219248,1048.8302773888834,2351.98813101986,1154.4889611624708,2541.2667158753115,212.76550195224056,1977.8229741610896,1333.4529516348966,2983.283230637785,2114.216229931837,1453.7124523371558,4076.732891339764,2289.455573029442,3208.7239412359986,2289.455573029442,2599.931199194968,4053.70431752877,686.4298773818696,3714.239462600828,3167.3847610975627,2198.411640351799,2678.905422508278,2300.4619515288887,3792.543545327938,2875.079538971253,543.3391942533358
1572.918477104769,2783.394435205083,1492.1987863517352,1443.9038866389496,1231.5271448514857,31.37234946838271,3700.84102079337,1351.3440577970405,1629.9119660762608,1328.6013740862202,2908.190062576998,2902.081795558162,3059.812552347504,3007.820980257895,1225.3578553094085,1671.18600041405,932.7145046203382,603.235112545487,1325.9633689688744,1039.6213937632697,2352.2814851691537,1081.7491126195614,2857.468644207273,156.65642236037615,1945.7163032574367,1148.27721346342,2939.936670808471,2127.2289615046416,1495.0340896009377,3986.375004118329,2195.310749660552,3562.2632344260046,2195.310749660552,2300.4062466266155,3966.287487672744,696.8167881677323,3793.145291579108,3132.0769603632,2381.9596669082584,2687.602816764961,2249.5095025301785,3643.2128464020025,2892.3482013419025,493.45546862964056
1548.5923994590353,2798.2600930566405,1509.4503362515416,1428.0753905430151,1656.7423626686518,-8.505447111840567,3570.288526468027,1313.196783168345,1572.5284065392898,1367.057047227166,2889.480450343387,2810.8343090667245,3092.160227645726,3096.5670849332337,1104.2596627706102,1596.1806934102729,1084.7303594238192,620.4001579724163,1351.9137086344967,1050.2780444496495,2351.4312594281387,1030.9236363691296,3099.540079480285,111.52686594070563,1917.9131133166632,1024.4627218295514,2899.686026499497,2142.5008500572426,1528.8565230319118,3872.5009149989846,2155.2404082496573,3872.99019284265,2155.2404082496573,2018.9695618073056,3752.5461528381793,755.5804470295211,3876.771077092719,3081.5207489669715,2533.788101441673,2699.088055691996,2201.34113609919,3375.1399873625173,2912.4341089358004,444.22884577435457
1532.1567581938605,2816.956789729014,1521.5940514875324,1433.6518340664986,2127.8732868097886,-45.94545684577133,3433.0660211643462,1272.1537403711725,1514.9362019733544,1383.853518921369,2845.3981023983706,2683.087956929042,3126.974636204352,3164.554534529163,996.9381584462104,1551.7243568175418,1247.9311282335034,642.1230624579939,1361.7832846110546,1082.3003658881732,2348.3854512083617,1004.4559541207344,3243.552555534643,85.30853911559348,1900.657441368127,1002.4460357101916,2861.780129771074,2161.89660841524,1552.351579346851,3740.963219661957,2150.17066674382,4098.928629537793,2150.17066674382,1763.2933427537455,3388.4018436892925,890.9893045342346,3959.572541957712,3024.53578432638,2650.341679862523,2712.9048149972714,2156.705220238884,3013.0330300038486,2935.0274789592195,395.7449237394019
1527.3038358571453,2843.439525177848,1528.4642873414143,1464.1878113284674,2636.917206657516,-79.11025950076555,3309.659347511016,1228.5005256535885,1456.4063360237762,1381.0649634753706,2780.2489515621683,2534.827305675816,3163.8540889729893,3209.975285500218,914.5207639610552,1537.508215378169,1410.6525762423262,668.5624239428648,1357.8743195298036,1133.096663374833,2344.631893074336,1000.6622691190688,3282.1269423227413,82.8991587649216,1899.70864632296,1121.863134986439,2824.009031406952,2191.134417714542,1565.73046703097,3601.181383245843,2159.20068198488,4225.374036002482,2159.20068198488,1534.0343538813872,2890.3166510192887,1108.71057323728,4028.346595766293,2968.782922693449,2731.495142567167,2728.515013523478,2116.5278282540285,2602.411838732848,2959.909261746465,347.88689526662074
1534.6820973855752,2883.045940808037,1530.6922283883737,1520.795336228528,3067.7605572017874,-106.79845686172304,3206.386052647451,1182.5288785613045,1392.4357447278117,1363.5909966709492,2700.11502498939,2382.7801277140134,3201.810717480546,3232.979248279013,865.316629828485,1550.0966446998216,1561.860624229479,698.4842238545257,1344.7302520859043,1196.5224969682247,2342.896559592751,1014.5685114675016,3224.404544480117,104.15655876889308,1918.3222570399016,1398.1147070330928,2785.6814148176663,2162.4420736080583,1571.4849006546046,3465.477546576209,2163.0855901617183,4262.0346656734855,2163.0855901617183,1329.0108792777523,2313.703021270029,1386.423587917579,4063.966986301906,2919.3462451862915,2780.310220374666,2745.4566065540007,2084.01533521495,2193.274985796716,2986.968061033428,300.829322558405
1552.6093301173069,2939.37588213786,1529.2573423819138,1603.131976335482,3338.8793042180623,-128.90203279272055,3105.0757310248305,1134.4933337184052,1315.3865286380428,1336.1231642120588,2610.114848835017,2239.873621845369,3236.9852359819065,3234.738324413433,852.0379730340276,1584.6244146077845,1693.7960679392636,729.9594798949399,1326.8637712537015,1265.6184449103428,2345.890952092432,1039.4399341748997,3092.645528022833,144.642829092204,1956.3058266310327,1807.915159330846,2749.858983149066,2236.840841334034,1572.6326946080658,3346.657816552033,2147.238518658853,4234.412016705777,2147.238518658853,1146.6666267669214,1737.7185820966774,1682.2582997868535,4048.291461756176,2877.9323203419203,2802.947675038794,2763.444606260888,2064.829114483874,1827.008961726492,3016.138498821384,256.12217963735816
1578.2958752553843,3010.519419691916,1525.0416770319955,1713.4050023157508,3417.6353708597385,-146.3147437123207,2966.374157089544,1084.613517577195,1217.2439523107555,1300.9195509699896,2513.3855981861684,2113.0312205134383,3260.234631469885,3217.4608430398484,871.2971738958654,1636.2062818200634,1802.5372828393668,761.0150601427902,1306.5630500928617,1335.2463169850423,2355.4589053000195,1068.456797095417,2916.6338623868755,198.110464439437,2010.863838550041,2290.90572571069,2723.209866817639,2338.957012739251,1568.8914365249043,3255.128834081248,2103.8288905408813,4173.5664510754295,2103.8288905408813,987.248358123654,1243.985782024024,1948.512282220253,3972.090272577171,2843.3408093376493,2807.9335546591265,2782.420790310104,2064.329058112365,1529.7632479218014,3047.3333040811854,218.32065295312896
1609.1684007526387,3086.883349243617,1518.6107063276477,1857.5485942481564,3328.5217571128,-160.5216135924852,2760.138345659007,1033.143956247361,1093.9649659781994,1257.8552284894022,2411.0304338447395,2003.2000203457817,3258.804992505645,3184.17379759106,915.0918917557968,1701.469551088584,1886.074506535942,790.0979851168595,1283.0053540862336,1402.990849372029,2372.22936107904,1096.0768332139187,2727.224155414364,259.2362615985544,2078.296319430965,2767.7209395013515,2713.536076072659,2460.2211823548423,1551.6973359204462,3196.586070262764,2032.331663017929,4107.462363282683,2032.331663017929,852.145692948463,897.4256213482788,2146.1615772024165,3839.385660546275,2813.349034729735,2903.671830307513,2802.520390099402,2083.808318765534,1312.1037598612534,3080.511448756856,196.32764508968057
1643.5982705800634,3151.1224999205447,1510.1994987873916,2038.4897824521472,3133.9738488829507,-173.00982187769205,2495.7105804119306,980.4231434604368,949.6468558085652,1205.873074285358,2302.3263227743123,1906.3853212100369,3222.1697695522244,3138.188041072788,973.2640767058508,1779.7349216561397,1942.0868020735645,816.2997297861771,1252.7577435170433,1468.9102313778094,2395.709447720077,1118.7562998011242,2550.5432123866967,325.17411777007464,2155.1632236770283,3165.553305936476,2726.0252237010995,2588.1629859335308,1505.9340467450806,3170.194740557316,1938.25428135026,4055.6228585605095,1938.25428135026,741.7684476042523,734.6163552965115,2256.08317889027,3665.886246968431,2786.530336524881,2904.513065345649,2824.007362929582,2118.445500316428,1172.5215624041432,3115.7213325807847,203.2265821421331
1684.4900273409569,3182.0673091935205,1499.7547399447112,2248.4947563809387,2907.5576843164454,-184.6131184357405,2223.370239996901,926.8359354539972,797.4169763220643,1144.530407012788,2185.246922957521,1815.7994858720128,3147.2620369256456,3083.294003993011,1035.9894267896047,1873.4579941964307,1967.3779860264435,839.3171282611374,1211.3599067992604,1535.27324110195,2424.661581878181,1134.4828715684548,2404.116260233085,395.59715999282,2239.263843659862,3437.971887736072,2760.140054785008,2711.3312676107703,1421.9550660425405,3168.0279975223475,1830.5781927994312,4027.4101287946814,1830.5781927994312,653.2360523248997,760.9004990753792,2282.613624926241,3473.11053067718,2762.7842845776527,2917.0459837667404,2846.5981840068407,2158.214837372537,1102.407800480822,3153.068103111349,254.2647155307796
1748.9712874547808,3162.9483332080363,1487.0183898056216,2468.959286985978,2711.0121673603294,-195.13316065711888,2011.7046871027192,872.6888384559818,655.3748137617117,1074.6783281497542,2057.949319445162,1725.3264137342464,3039.800649871718,3024.431104750945,1095.62940054378,1988.1745725482265,1958.949347907619,859.2449533778472,1155.8960695317478,1606.1733513186175,2457.5926873305298,1141.0149837177569,2295.6427420242712,471.82082289386017,2330.807672723696,3572.4734420857185,2808.7742900116627,2822.5326217084903,1305.8978856660897,3176.589025806496,1719.003998373358,3911.0905545536734,1719.003998373358,580.9046121511271,954.047687759862,2248.6724433908325,3281.9186811595364,2742.8833789940154,2948.9813676205467,2867.33105250276,2187.272613858208,1090.956515549443,3192.7592899719657,363.49279955739576
1867.799235945424,3089.124405016971,1471.7069876966684,2676.734176163482,2580.91819915177,-203.54914016825023,1917.180770227113,818.073139761053,539.8344896287078,997.8161388766972,1920.9477070447413,1632.737085800175,2912.2176419595094,2967.0615245557133,1147.6062258602335,2130.510613214192,1916.2931034339804,876.3837335292319,1087.8887735389249,1686.214191648649,2493.1903735175165,1118.6722876299343,2224.340054388484,555.792359521744,2431.2411333745085,3586.586334215357,2859.540282578506,2919.7069730890057,1177.8709911248045,3180.0078763988886,1612.1378977489776,3926.943664951485,1612.1378977489776,520.0994929994981,1271.0294988320975,2185.947347598721,3108.10073606929,2727.7566898824257,3003.898923748183,2878.824814670143,2177.593140273814,1128.206859939488,3235.084850269652,539.8551113857739
2061.957634631886,2970.171506993019,1453.6716247621027,2852.059281935097,2526.437946982028,-208.6438809863007,1960.34779228512,762.8916981359068,460.00891298435386,912.2644604269204,1778.5644001830535,1540.7004432987674,2780.0473107342787,2915.06847566014,1190.3524926002744,2302.812294017963,1843.5862538819847,891.1262851519937,1015.0602374360802,1778.356358325089,2530.6258956741435,1087.0447966856584,2183.5190189118603,649.4393949312066,2538.6775237235734,3516.86109824091,2892.8470414914827,3005.0045862498664,1061.9853169758608,3164.266818181148,1516.615488949038,3953.199706133035,1516.615488949038,470.1713665975699,1656.0422107597792,2124.689442162716,2960.699046032351,2717.9617657933213,3079.5121509057226,2871.163602685128,2091.311124059465,1205.530830348352,3280.203936664137,783.9156078133656
2320.8518112142124,2826.379868695424,1432.9469287632378,2984.463157736576,2535.39331643644,-209.601627618024,2120.303827546605,707.0245406592744,416.38079012576986,826.0652781380288,1638.8483908652074,1455.3662495325093,2658.2033795350217,2869.343343260473,1224.588142608949,2497.955194799304,1749.8909814038432,903.8571688354652,950.8963357634964,1881.9774814333853,2569.6981928214736,1019.9567564204106,2162.912038266152,754.198052221632,2644.356114693377,3405.8466512212167,2874.1666130284334,3082.823585753448,976.62588002683,3121.2303386215413,1436.396331513122,3981.740615191531,1436.396331513122,434.06699586908303,2049.9156400863085,2086.3866753297784,2842.1054987552425,2713.4829009939995,3166.840962693216,2836.942793572944,1903.384042224554,1315.2236140499251,3327.9806011866867,1086.546053853269
2605.283244428488,2683.0056064504665,1409.7395790051328,3074.899697285572,2584.1010202692964,-206.31085315687187,2347.6013929421283,650.438824091046,402.2558806362146,718.7680514660747,1511.8547726092158,1383.5424460134682,2557.7422713428027,2828.3643685026204,1252.265024729157,2699.848848460275,1647.2538708513337,914.8324128600588,911.8123756671384,1992.40263052236,2610.7728226919303,917.1259949971228,2150.434698745524,870.2202830236552,2733.707039011101,3291.141502307141,2758.482126794929,3157.047866835152,929.8644974765592,3050.489185989597,1372.412977191684,4005.29373481892,1372.412977191684,415.5902922849539,2400.065522574393,2080.6427795222394,2749.0054991362786,2713.762684691039,3251.162539369053,2775.8374579516294,1623.2972535310655,1450.6076502852734,3377.9887682247527,1429.668196474715
2866.2872702027007,2564.4578817310744,1384.364406748214,3133.812779671033,2647.018998573869,-199.34991323538088,2585.021970578032,594.4969078307433,406.8981117962567,652.10621741504,1406.797548190105,1329.6188647675249,2483.4997555144173,2790.189949805941,1275.6052924948333,2889.2237437110853,1548.2542499370072,923.5723880119348,912.624437075148,2102.489887610567,2654.508650958296,794.8406305044443,2133.825634345532,995.6382364356288,2790.400631430845,3198.697022048776,2518.043322372327,3228.5101923428206,920.3305671820758,2958.139153029606,1323.0179702623482,4014.524770184707,1323.0179702623482,416.7800661503559,2668.503046300236,2105.7336863050887,2674.330827060709,2717.894328113668,3315.7505360677847,2695.865944864556,1294.3135469973136,1606.2941659972885,3429.5717997651795,1788.26666273225
3063.598054405843,2489.145682859759,1356.9035586468951,3176.257822801662,2703.7662950032627,-189.7566268075261,2785.5171285695715,546.5514408257666,418.916341302403,681.0798259810213,1329.43970238478,1293.0581383067984,2433.619272609576,2754.755986592826,1296.4783471582723,3050.270072581863,1463.953184236117,927.5411077556566,1040.1735421761969,2205.1142606131853,2701.45135825199,678.9134167341851,2102.457183938752,1126.9436394982888,2800.827980354697,3140.7852232801297,2166.2068599989666,3294.562276007967,940.6483727914028,2853.227301766346,1284.9809910921194,3994.764062390018,1284.9809910921194,436.6616108626563,2836.2307878179954,2151.566059398287,2610.398501679804,2724.9099994217863,3347.2307306701086,2611.297689580077,975.6380056262816,1778.064850756773,3481.945352347775,2133.69087027852
3176.426171344924,2465.712684180809,1326.5097114725029,3216.3424505681937,2742.558228445675,-178.71705382207438,2922.104064143591,524.4650837936638,428.9567439993082,831.3189819801999,1280.809788231615,1267.3740100525931,2401.6230056043187,2724.8866661748407,1316.103206625984,3175.2253516689243,1402.220471602066,922.2298802683348,1136.6210606634795,2294.7375371615594,2750.697303849288,592.8739564146051,2049.10802144566,1260.5827642258355,2757.9146144566207,3117.943141479052,1753.3629374223972,3350.910376504862,980.808413976559,2743.8180414374865,1254.67465626195,3927.8657692181855,1254.67465626195,471.6369446546321,2903.8085809605727,2203.967511566884,2552.403765639712,2734.0343319690605,3340.014832380617,2540.239859215439,721.3256170709369,1962.456449373879,3534.509111808733,2437.8809729928817
3205.3694343472043,2491.5239481174303,1291.3370496940777,3263.304049493516,2760.3225674365376,-167.21329181248393,2989.3810242308755,553.7971865636114,431.0798702272657,1085.3712931041089,1257.4662507247472,1242.6647292439625,2379.8759735816643,2704.9259227709745,1334.9951641494015,3265.3646160849894,1366.3214373259786,904.1072027249782,1279.2307730903708,2367.7174371394326,2796.831018275795,594.9802329632892,1971.397155062452,1394.5355315477932,2662.9790266544933,3123.1921569992355,1344.6074749779798,3393.315060196593,1030.7153686269455,2634.897470945793,1229.0617573546065,3799.63552726905,1229.0617573546065,517.3240767827765,2888.5846756508686,2249.0108497566634,2500.416695342245,2744.7567061344416,3298.215432649019,2504.225999137454,565.1360122396834,2155.761549525945,3587.3241539328183,2676.963338263846
3167.6505840084737,2554.1527604197545,1249.8118323870935,3320.459596888669,2760.5694896428045,-155.39947373549467,2998.9917431092927,657.7362280843502,422.85217552215454,1395.3465113507502,1252.7906672893828,1211.3807308866824,2362.164247193922,2698.198204680108,1353.0455978920863,3328.2665422405425,1353.8123080973307,873.49377153104,1458.4882008330603,2422.3237010836347,2828.475054181104,591.8033793225416,1872.4691910473864,1528.7505797775302,2524.755245889912,3146.3415877110456,996.8829068234396,3416.9044336202423,1081.8421121678823,2528.210227346953,1206.1443691578447,3607.935126680781,1206.1443691578447,570.7639834585234,2819.530012052688,2276.074647656857,2458.5488587108653,2756.737797708086,3234.217583239036,2526.0881042707674,515.037694355661,2352.0550301161347,3641.203199585224,2833.7813310765328
3089.1138521541784,2635.759668546123,1201.9443456420724,3385.857883465832,2750.3628087168813,-141.78730011079006,2972.133588075061,846.7842015005444,404.6876806776627,1703.7205917828971,1258.5724529772078,1172.376232787571,2344.1184883061046,2705.4946740649684,1369.6880708116946,3373.233078005108,1356.7420379092105,834.546791066447,1661.0189296813337,2459.290805253665,2832.4936921449143,623.7565975634136,1760.1022276542806,1665.5821515076818,2356.577025518713,3177.469060537317,744.6561794598838,3415.110238930696,1127.998704443494,2422.9378199862203,1184.8871837342408,3365.7232282133127,1184.8871837342408,631.2739153856905,2730.844728382865,2279.620284208504,2432.164154058616,2769.808723348704,3163.703394492627,2622.147612990563,556.377316224329,2541.593677195399,3697.1200769842953,2894.7926849567366
2996.175095898723,2718.724227281922,1149.4066730487143,3453.2729643321736,2737.4982173954536,-123.53362503238576,2931.8879921945577,1113.6159806209955,378.8448390824901,1961.918402321117,1266.8511631113138,1130.2352082264763,2322.260651291768,2725.2768708980184,1384.1429211455866,3407.451143990166,1364.2711741853325,793.2046129491027,1871.381161001094,2482.677045721651,2801.1663455218963,678.4184507983857,1644.277659118956,1810.9313952737289,2173.1593271597567,3209.4274568725905,595.9139779036473,3381.746707500892,1165.770135589603,2317.334912220896,1164.8361296243768,3096.9957920413885,1164.8361296243768,699.5474933119938,2655.3656513843443,2260.149567608762,2425.2045792633653,2784.11123167158,3098.8283973810376,2793.290327917892,660.4861504213968,2711.579651665864,3755.475147515032,2838.5858368806225
2909.881879224933,2790.107404955711,1094.740557967833,3514.443161493975,2728.437298149533,-98.79174470065756,2897.290941425121,1434.851572861624,348.2883662631343,2141.3868932834903,1271.964248265238,1091.908655631989,2286.0378269146554,2754.618145712216,1395.6366549962472,3434.598200424536,1366.5363235414154,754.9208114872843,2074.8346278231243,2499.6972547913247,2736.7528339287533,744.2395789890747,1534.5504554868355,1971.184944227875,1987.557241522184,3238.605019167097,536.4475578354522,3314.5224916733105,1194.7200071598436,2210.894387038461,1145.702315841305,2828.5681494480104,1145.702315841305,776.5417195542198,2618.51993607888,2223.586774538264,2438.84788157711,2816.460132606928,3043.3161394237086,3022.2588718955653,794.800160331293,2848.881218968324,3815.9112607334177,2638.26428285822
2842.9834026107515,2843.0983143471312,1040.4282270754477,3562.097862639629,2727.171536668608,-69.32100212613841,2880.164910860308,1777.8004167324666,316.49847646223,2235.944044451639,1271.7037727357786,1063.4152516957206,2223.078282313817,2789.586309657728,1403.573777051667,3455.634193170107,1357.4717112947667,723.1997610495139,2259.763067974218,2518.491677541608,2651.1461334125643,812.6568165596598,1438.314146943063,2144.591101641815,1808.9012655365304,3264.122356999314,539.3031254191203,3217.17309929303,1216.3926626771422,2105.3780959102737,1127.105255602868,2581.978537399365,1127.105255602868,863.3007797581081,2633.551486839007,2178.408668250641,2471.608675996887,2795.3888894905303,2992.443807727457,3279.220683972781,931.1550266460622,2942.730549224133,3877.6273527307217,2292.0445291598794
2799.8196782237096,2875.445895658475,988.5937335534657,3591.289029304219,2735.055527222908,-40.50393540982304,2884.77175293188,2108.1117787750063,289.2888806714993,2257.267951154736,1266.3593257258783,1047.859324850674,2095.8701383593634,2824.8871643380635,1407.69723200566,3470.360417730297,1335.800492175934,700.0562421097409,2418.9984167687894,2544.7367021716555,2561.138709412723,878.2562743852259,1360.1284216704755,2316.863056593966,1641.722093767617,3286.79292702918,575.1548405285939,3100.537320966919,1231.9179620927296,2004.358830324364,1108.5254294699955,2368.524067076599,1108.5254294699955,961.2716327911698,2699.281402836521,2131.835748532656,2520.082029294996,2680.5689306776667,2936.5744823299024,3532.197378708746,1050.5247115490724,2986.542154159766,3939.3714801373726,1848.127933895112
2778.1688618489184,2887.1408422809427,941.9886829293062,3598.976185857204,2751.370326266236,-18.655859042592965,2909.4338257339723,2395.831383647476,276.0674850491987,2227.223377203338,1256.0555471421708,1044.94036936839,1885.4495942745675,2853.8410096234907,1408.1326195440497,3478.6993156361186,1304.2702620027076,689.8729529192951,2550.32988847321,2579.1824829715683,2481.706662603685,938.6640556459696,1301.6078257368592,2466.758262705155,1486.8564784309078,3308.424300376915,619.8730857077005,2981.678058759396,1240.0304270736522,1912.0094777310408,1089.4056423212191,2188.751926592661,1089.4056423212191,1072.45873606692,2802.286850886576,2087.420589580005,2579.0192346448903,2427.8538677260008,2864.78517917313,3756.1036620629848,1144.1198832508178,2978.9214860795905,3998.969361078429,1394.2679145059133
2771.981018198991,2880.018505275467,905.009490222788,3583.587859319746,2774.1691326413256,-7.955974411061561,2948.952114649305,2618.990360982056,287.42747410339985,2170.671303677826,1238.7966453460062,1051.5913817471633,1608.8131902673058,2869.575038436913,1405.2741891268647,3481.339288661017,1267.4100390356916,704.2610260128417,2655.8039039878104,2617.489153702857,2420.901366076134,994.2578308873906,1261.5558322845122,2575.5588594129413,1343.3895597307612,3331.244547789862,658.3588052511757,2879.95861586117,1237.4638401857571,1831.2775648618865,1069.2534747304835,2035.6442868221643,1069.2534747304835,1198.8674755840004,2923.5346334738424,2045.301156135249,2640.6993239854883,2044.0459695068416,2769.305872305042,3936.659961430116,1211.793611385044,2923.4756079944577,4053.3701171274624,1025.5755399099403
2774.0866435003527,2859.244269729189,882.8010740810003,3544.7893481271394,2801.1008191848573,-8.840058673085878,2996.9681513321275,2764.302319976745,331.6148656634298,2110.339279276304,1210.980715683362,1063.2923914206813,1315.7030841011735,2867.3016819464965,1399.6197006907378,3479.7849104451,1229.3645981880672,761.1287606100793,2739.4358153730827,2652.250300093755,2378.786435348953,1047.1479077805418,1236.9069019469807,2633.6835218566566,1211.137197456444,3357.2893165099003,685.4184751549442,2811.388815146598,1221.2534277894597,1761.9814548982613,1047.6738008255684,1898.633455345666,1047.6738008255684,1340.929632327416,3045.897156079955,2004.377605449584,2695.283702454969,1585.7124398496169,2651.8139669863526,4070.011166011349,1259.0525088529268,2826.9864934635366,4099.571939173809,814.2458778818122
2778.2980605397165,2833.686894003656,879.285102682175,3482.697671339575,2830.0661724783804,-18.27193996370397,3047.8811453967173,2826.2154382106546,413.65588134698464,2063.398154063948,1169.4386412845324,1075.52788574027,1067.367546528506,2846.7952792450133,1391.6165546437142,3476.030379014807,1193.4524876409596,876.4963420584484,2804.718770388896,2675.816590405849,2350.104280060939,1100.061328732808,1224.8168720061583,2642.5521319774325,1092.3625116538965,3387.9624726552265,703.6851837265485,2783.0301239824294,1190.874687258582,1700.3195744558402,1024.3909007952866,1766.4058058440687,1024.3909007952866,1496.053098555587,3158.476887067104,1964.56710657356,2733.140346300273,1131.0747871594413,2526.482713092853,4159.906204508559,1293.8179711108323,2696.880204200022,4135.678831859099,793.3953602015201
2780.599794864983,2813.1952082914004,896.188711999944,3396.882514499731,2859.615213196578,-31.332842796568,3098.8502311196653,2806.249325064905,536.4015665151303,2039.313529788256,1113.1437161341362,1084.8750244152616,914.2414104679452,2813.752755809307,1381.6029213812194,3472.1033417683457,1162.7987098206372,1056.0570790875863,2853.7501040096954,2682.614812617584,2328.640462795785,1155.755396400482,1224.8490081974437,2612.5600876387803,991.2611676605576,3423.976831046868,719.0233834570247,2789.600566675572,1149.2603395593908,1640.5381158354878,999.272112854791,1631.099013601274,999.272112854791,1658.8177383445263,3256.507517362304,1927.614080305048,2747.804874748251,750.17532028595,2415.622909580128,4214.069007475229,1323.6703908148093,2539.813583376777,4161.434120701327,956.331854980942
2779.399126141692,2804.576875811031,932.9903374304604,3286.4458947720423,2889.096059491866,-43.09498407379215,3152.193276401424,2712.6897874049555,701.0500450655541,2039.4906924850911,1043.6022832248332,1089.4743577562265,881.7796897328249,2779.005837822055,1370.2682125680049,3469.05711488175,1140.294454863925,1292.195111450925,2887.948973365632,2670.6056070966724,2311.022213603199,1216.2391255984662,1239.7568589798125,2558.9485941124026,911.6939659021727,3465.439607859974,736.2902053381936,2814.221163243958,1102.4619131683826,1577.8894896778518,972.3175311443016,1494.78508403623,972.3175311443016,1822.7777686798736,3337.576187491891,1895.8239514747288,2737.614914967028,485.5743640637386,2340.179007980012,4241.388516253044,1353.8514623879532,2361.798312419793,4178.124843064254,1264.8753842200167
2775.1056184828017,2809.7217704808218,986.6361811281964,3151.5440491457425,2918.6097187155005,-49.991557900013504,3215.115783156981,2559.562261439798,906.0762367560028,2059.0900583432017,963.9590789994296,1088.916322862347,966.7869397815268,2755.36177387599,1359.8264626689486,3464.512335795873,1127.736177667363,1565.702135961516,2909.0806840580403,2640.7353508047618,2298.253832659844,1281.6799174417863,1274.3577932780242,2497.3705452365725,855.4240361207119,3511.9073589615714,758.0910340084065,2833.2961046326573,1057.4848607449824,1511.2492663574455,943.6442027614148,1371.5015940993014,943.6442027614148,1982.3331013348024,3395.9035055208424,1869.7927656428933,2705.3690748281824,346.9397221365982,2310.505203633758,4250.356860517635,1386.1402164732729,2168.718925582766,4188.046423193644,1659.9144355495748
2769.3879569443666,2827.0273662941536,1051.433819112067,2994.934404889349,2948.7917551724586,-50.41044428930854,3294.6488912555537,2364.4110000237506,1145.0495584227228,2090.1349250210774,877.8254486556734,1083.780725775985,1142.4270325191562,2752.782599305642,1354.4752338403653,3450.3147530787205,1125.0755606482198,1849.7872345842416,2919.7580273642043,2593.131277002693,2294.716947511105,1350.6156816600371,1332.985411147025,2440.4939467534664,822.5420558541607,3562.514586549705,785.9431294774615,2824.2046699376588,1019.4880613377208,1444.0013197001724,913.4651365333086,1280.7719234107844,913.4651365333086,2132.8815207072284,3419.751919537482,1847.617415859588,2656.526483529309,317.2865265231278,2322.8189624620973,4248.253436187306,1418.894103629667,1966.5778505420365,4193.807290181945,2073.002722009647
2764.3633207211387,2854.105448220683,1120.3940161049418,2821.6864917901985,2981.082394512144,-44.5851763002488,3392.434903384624,2145.298278918688,1405.8761364480956,2124.540531782413,788.5921710178911,1075.1095502393414,1368.1818472097707,2774.139603659407,1358.5368062296257,3413.750084437591,1130.1032728666314,2116.232206345672,2923.3539087721097,2523.7156625898506,2305.589543675586,1421.761635778963,1416.7116810266848,2396.2466564042206,812.7780198927214,3613.2453028178734,821.0797398521454,2773.278426626358,990.9159735055156,1333.8494178527735,882.0170559558774,1237.5444974607776,882.0170559558774,2269.143037945912,3396.4672163131163,1826.505381512424,2596.9684235040763,364.7470348721499,2362.5627999211138,4240.721909739343,1448.3337475939088,1762.0432713836994,4197.7149239763,2440.579928190893
2761.925623012873,2889.3504065608067,1187.5230629620005,2637.068570699815,3018.999406897178,-34.034469172464014,3502.6793598603745,1917.8489638115416,1674.4009184827423,2156.2425122131103,699.1199175439133,1063.9512381327172,1600.4213721077358,2814.3182510414645,1373.4517702656838,3342.2802305047608,1138.6174043463566,2342.859314023153,2923.536397473966,2426.3394303064297,2333.8823032242767,1495.3401423380783,1634.046685401013,2360.504358176626,834.9942218087006,3647.7892943013694,863.5293667646936,2680.1138451958045,972.8412321234872,1290.4391303950606,849.4685632269859,1245.0774292464498,849.4685632269859,2383.796101943575,3320.93776267449,1804.836189715718,2531.2559072464355,453.5424445527865,2411.143762854587,4231.639063952105,1470.4133862798612,1563.8255766210125,4201.386785633327,2717.7988239999618
2763.3203328459103,2931.370857287184,1249.034218329653,2444.4301575846653,3068.115616315853,-20.84069441027213,3610.526102357228,1693.5354943457214,1941.8087758140423,2182.418139742431,611.9000056572111,1051.0663748189,1800.2695307758568,2863.0404790225257,1396.2640765363597,3228.8256706333486,1145.310589296806,2518.615112573857,2923.6404015455164,2298.120586626124,2378.446560445883,1572.6112063657831,1754.6141823381845,2217.933136377437,867.4622971890137,3631.42560825341,911.1083477818644,2555.939824948947,966.184601153656,1264.4369021329608,815.8528531349455,1293.657563175704,815.8528531349455,2468.383926429361,3199.796526383301,1782.9369231045612,2461.7744741721103,551.4842676886474,2452.187190804191,4092.133853083579,1482.341787233236,1383.448751452274,4205.623947718272,2886.0169787858977
2768.9900598958875,2976.5243171023667,1302.7843268388406,2244.447497965306,3132.8903208448028,-7.004212712214667,3692.383891918183,1480.3600484788024,2209.9613270733225,2203.981745808793,529.5616992484474,1036.8738038761437,1938.362590678525,2909.178226048144,1420.6713021376222,3075.970649455568,1145.3600905423557,2643.967054808332,2926.1075890281218,2142.4747383096365,2434.2229685295806,1654.3592198406045,1880.3252375101624,2134.629777528955,905.5062106743007,3521.51566260802,960.0763120870818,2417.6925944510053,971.6292061839422,1256.6765574140622,781.0638055718828,1364.616476482435,781.0638055718828,2515.9255155923047,3049.5100105738125,1763.2062098947513,2388.8386971117,633.9211489676941,2475.3702945025057,4085.774965242197,1483.2576785768997,1233.265987165727,4210.504222758868,2951.808365275505
2778.710324806223,3016.5956335893675,1347.4094608788948,2035.6753064854563,3213.429114734092,5.986721181869143,3723.60232253138,1285.4069448827454,2486.906756927039,2224.6347625297585,454.8495666820211,1021.5599916004226,1997.6157070413165,2944.3096856718284,1439.7305473756414,2897.9507392753403,1136.2788677378578,2728.130942790897,2932.228335733719,1969.1688545851785,2442.394598808793,1739.9696344965191,2003.0136645906653,2069.67335566264,935.5497466376182,3287.8133870592496,1006.8747602999364,2281.498422144021,989.3857172612034,1264.484057999493,744.981732521313,1436.962027254251,744.981732521313,2523.052844376856,2890.5029963596285,1750.3231069245876,2311.5349797000385,684.8374022746734,2477.4621587116503,4081.326964283961,1474.088572158542,1122.465377479225,4215.317750427428,2939.688806671569
2791.9029863474443,3039.449343245038,1382.3556003296626,1816.0968430008827,3305.3129378402264,17.331034280760832,3689.793332945874,1117.0373870896638,2773.893015063121,2248.254132545074,389.8688727713991,1005.1897623356735,1973.9345829801327,2964.4934784346283,1448.4400026280284,2718.2640111401047,1119.0698751537618,2785.1630848832656,2942.269834995286,1793.4000246846877,2504.245410657089,1827.902169587489,2116.907308700871,2100.027360955957,946.503204307906,2926.573199410604,1049.3411720483157,2158.289711018858,1019.7577323111068,1282.8270597946491,707.6581961863169,1493.2639225098835,707.6581961863169,2490.641166233036,2740.022318769818,1750.8046845438714,2228.8047030631783,696.6457341571725,2461.190482387065,4076.3696988029487,1456.935829543994,1053.951897390442,4217.074603654784,2882.216844399405
2807.929891543082,3032.849422054024,1408.2462443332734,1585.9840118496763,3401.778828057514,26.872247436103407,3592.2105950636005,984.984415485898,3056.857405256346,2276.353216413101,335.35597584273705,987.7276168902048,1875.342420174581,2970.272878993881,1444.9041003442776,2562.249987346496,1097.74293332135,2829.684215216728,2955.855222875989,1634.165809369365,2562.909647177544,1916.703178215222,2219.8224170297467,2273.15645583857,934.813895219073,2464.15034172057,1087.0029166340375,2052.082559281587,1064.0924724682393,1305.8350044506496,669.6255126986387,1522.9177703343803,669.6255126986387,2423.586481038837,2606.704999307379,1771.5993569102889,2139.625787494518,669.8694961339047,2432.952542436264,4060.261234953809,1434.3521685826008,1023.7071758120156,4207.462979188118,2810.8113382957963
2826.274362469634,3110.866246632744,1426.8481292635352,1351.5109405108913,3496.4053811742942,34.91759660006028,3445.0259000147366,898.7247469901235,3310.4435216448146,2306.703755949539,290.46778855218827,969.0087317491466,1721.0361847079816,2965.470197618188,1430.0815045549325,2447.991658370724,1077.3435823536684,2872.977070459508,2972.355814196607,1510.8979239597936,2617.911590755438,2005.4194837206248,2313.5502883826207,2577.597925878326,905.7656647983432,1951.990581769429,1121.022966649832,1960.3990287876927,1125.2212399792104,1328.2144044376778,634.0628674382815,1522.998931804392,634.0628674382815,2330.071394730408,2488.6853674152308,1818.62411768825,2041.486863810725,612.764346462084,2400.2973004906344,4009.807416089143,1408.698542787481,1022.3819120622834,4172.370549652049,2749.361608804091
2846.596641151103,2996.0776440251643,1440.9205385207306,1126.8918213282088,3585.0548592209047,42.00667827797952,3269.248215749228,865.828108020642,3509.182112213363,2332.799388477861,253.03587619761493,948.7760453342156,1539.2273811498203,2955.4521806373805,1406.9640454695914,2380.5636341650456,1061.7685207479403,2920.1554071104533,2991.1189561550304,1438.427279791749,2670.3586209326954,2093.5569609131853,2403.57736514846,2955.744500844703,870.3500787009016,1453.9793435474703,1153.8591907514724,1876.409674512676,1206.5122027844393,1346.197273701996,611.1944166102267,1497.0244988176255,611.1944166102267,2219.861078327566,2375.063218117524,1895.3376164533136,1929.9913043318977,540.2889826035546,2369.838697492103,3896.2849443384016,1381.6761834250024,1038.0952209278732,4097.720816439261,2711.333081953463
2868.72293411944,2771.7895184310573,1454.4058249312875,933.1840357163272,3666.623470884018,48.70140240708497,3087.14964893914,891.3194471922793,3637.248970612886,2344.4873366310326,220.1533619642919,926.8129535549868,1361.3730805179166,2945.489924340027,1379.5119416425064,2351.741231423589,1052.7423439595775,2968.858128083938,3011.5546439317227,1422.2853581645252,2722.2368732510363,2181.5467695446405,2498.4081217865364,3330.8175153686134,840.104762325894,1029.3797810626495,1188.487984251747,1792.381294572777,1309.7799946855982,1357.8233630909,618.1345976386847,1451.8626562230131,618.1345976386847,2101.784612209616,2249.835627826242,2000.8385335011328,1802.2330250991065,471.6739168830729,2345.984453229683,3700.051278186142,1354.1297957708052,1059.3498896744431,3978.0196935579866,2700.1448235720763
2892.6491901518425,2417.999529379871,1472.6619367953103,793.8691012602096,3742.841917872569,55.44060304744153,2918.244133563197,978.0399360050036,3692.758538926233,2330.0438498013805,188.95080624407208,903.0618064978204,1214.2472434188808,2939.607277710097,1351.0706271825786,2344.23444609774,1050.1409314815182,3010.197952392092,3033.247872061684,1457.0124580908175,2775.860597757046,2271.5000888882046,2607.506313258184,3631.902231229701,822.9302284795192,718.1730234394713,1227.328263613059,1703.328294747523,1433.9775085944796,1362.7175257622737,669.9249649735686,1394.327602150588,669.9249649735686,1981.3841293313883,2097.5546327616994,2129.429417843942,1660.47326706368,426.517439427153,2330.6145633623933,3420.308543592636,1326.1296957260697,1085.5598508365476,3820.300966097667,2711.946496375213
2918.522005667804,1960.93354554032,1502.0645247261357,729.0724830303905,3817.364602788628,62.47291157909217,2776.602497121124,1127.1772277779162,3686.581229069257,2278.907848571293,157.26686248627948,877.6149472751613,1113.8703344726446,2940.0425867876147,1322.918329427908,2338.5112075861043,1052.512187435244,3032.0109024051867,3056.079175320808,1528.2943464954712,2833.5820276427835,2366.551612557289,2736.364416992484,3811.4793004698186,821.6171145190033,534.6966968361653,1270.948295686962,1609.0416217730435,1575.8489190543428,1361.6673208168177,770.2438141079235,1329.3891005473142,770.2438141079235,1859.8651078447024,1909.3170254818936,2273.38742890612,1511.9725670538144,420.2372883431876,2323.540766815689,3075.3402939167136,1297.2075405021442,1149.8364922416713,3641.138726712848,2739.2915722826447
2946.55222212738,1466.808148093318,1548.7000866766252,751.1338405888641,3894.2602023445743,69.90561032403548,2669.3646046290905,1337.2235418161877,3637.639990338296,2183.993728130259,123.9498426967989,850.6070010975561,1063.571285035825,2947.273745076885,1294.1294362218448,2319.474929526078,1056.9897109758065,3023.3968213615344,3080.2007588318693,1617.7605442614708,2897.746951001589,2468.4196459822047,2880.82619487999,3853.402330398664,835.0701162238083,470.6324266048116,1316.6927790598118,1513.6805720514178,1731.5786504003615,1356.1119285402408,909.8097534381544,1260.3064362228718,909.8097534381544,1735.2272453542628,1686.8033084989956,2426.264240735584,1365.6369773225133,460.164692531584,2323.308624286333,2695.9316086927374,1266.6405441829274,1319.7407830563925,3460.147558537598,2774.1966596406046
2976.9066091019704,1014.2033658406468,1616.5969300349484,863.3201176252983,3976.33749245881,78.62128490366081,2596.786955861192,1599.9338504282236,3567.003476945972,2043.0472244152047,88.76559383775293,822.1517760217673,1055.942546610904,2960.4521886464386,1262.985914131456,2280.3656653577914,1059.2414314866478,2979.225403201903,3105.927308733768,1709.151553704448,2970.319838760095,2575.092080802662,3026.1531869004966,3771.1405995948094,860.7221014117335,504.07008692616046,1358.145718275561,1423.4980772822712,1898.2510444393351,1347.5937973676134,1070.367857587164,1189.5127395390075,1070.367857587164,1605.2484136627877,1442.5873318915576,2583.8542167184005,1228.7464920500615,543.7324346768476,2327.9787937249152,2315.956688036746,1233.7664509627443,1650.521475365302,3293.676089188194,2810.049813334785
3009.633618710296,666.1261666943301,1706.5798295375887,1061.0949699110197,4063.8386762189984,92.97193781439432,2553.732916570388,1895.3746206793187,3492.356994750191,1859.2808176895144,52.69746364275625,792.3948549456993,1077.100761680795,2978.0205886431145,1229.2509298677012,2222.9673109700343,1054.2620447270158,2902.4425606186905,3133.615407543067,1793.8288531679127,3051.6849894503894,2680.539757249091,3152.5438773969745,3598.518141599074,896.4318894873225,609.7264255406519,1386.9497594365291,1343.192255346935,2074.9574108553807,1337.3336613999618,1230.0184532712688,1119.2135882443172,1230.0184532712688,1470.4262295202832,1196.5174074284432,2743.343994554696,1106.1812811535035,659.5648474423363,2335.7538527955576,1963.558486902248,1198.2421885124045,2138.203786976332,3150.432931875245,2842.594351318108
3044.6729304066184,453.097713465545,1816.5689363265992,1334.2798280792424,4152.703502672207,123.06289037017427,2531.668483365612,2191.971062748132,3423.965436403588,1641.3292759208202,19.883627418694687,761.5668289796765,1111.4235821864822,2998.290093599046,1195.9641620649618,2154.857746628757,1037.800760827452,2802.5062514198207,3163.489930959672,1872.916834193256,3139.169453733559,2776.783345098568,3242.928311549213,3376.7738559411428,941.242519214646,766.7610810790829,1396.7273325260296,1271.9765464067157,2262.968293299441,1326.0477177366845,1368.4924017141252,1051.4376814629743,1368.4924017141252,1335.015124365279,969.5870555834032,2901.809788034267,1001.4264648145938,790.8476960855337,2345.3635329286885,1655.4934408112572,1162.8201270676452,2719.3851230942,3029.590822680677,2870.1857879983354
3081.9515668591143,371.181749740575,1942.9856307835623,1668.351151540753,4231.681559069864,182.77370583785432,2520.150688401529,2454.296604826929,3363.67302646602,1401.9465514120818,-0.0001249240995093,729.9104494849994,1145.3885078917374,3019.9124750115234,1169.53160679512,2085.262668239865,1008.0082070271794,2691.412078889459,3195.5443113107945,1955.1806251939693,3226.187910149873,2856.739646956245,3288.4614542998625,3143.204488033259,995.0579793360498,963.0426440016432,1386.2856042473527,1202.112398112609,2462.931986699219,1313.9420954410712,1471.6230127468866,987.88278602821,1471.6230127468866,1205.809714580564,778.0602495245039,3054.430649389566,917.0513999194084,919.1822864191544,2356.172801523257,1396.3718234862686,1141.0264216963924,3303.281810135797,2921.37081302296,2893.414463140841
3121.5225291382,391.8653194793699,2082.021087628106,2042.5416993131523,4281.7604519926645,284.01956566432955,2507.8971834892686,2653.957623765524,3307.4367745879345,1155.5508858937671,7.57962536091236,697.5392404621466,1169.8219289498409,3042.217047762354,1157.753578484185,2021.4373047200968,966.7482530204376,2580.1551393313744,3229.6539338329494,2052.276713741359,3302.6676890308454,2915.8823729343644,3290.1016192045154,2925.1025725106483,1057.591954200608,1195.3716167930986,1360.1558097282086,1122.2701888983793,2669.2069966362824,1300.776765063365,1533.7024412155138,929.952673661162,1533.7024412155138,1089.599018810385,630.7422950626917,3193.2270211987347,854.0581565202308,1027.5089615510171,2368.1072838277623,1182.6977280660983,1214.043546779439,3805.940829713288,2809.927841409579,2914.2624181483934
3163.6809619160845,476.7505403123744,2229.727069008956,2426.4949139669325,4281.582019897039,431.2893952158888,2484.643769224914,2777.199603220436,3249.2993673906763,915.7998208316014,57.29019317292796,664.3699037343263,1180.486944329734,3065.226952772199,1166.052883969193,1966.940209325615,919.3269601188956,2476.971663354345,3265.790774377958,2173.99344985561,3356.9902211475337,2953.169346318552,3256.4375405899164,2738.761578890698,1127.4580457581096,1465.1889826142592,1326.9524620741304,1024.6812823554278,2866.574707246089,1286.0339015163113,1557.1807624337712,878.771994913762,1557.1807624337712,990.8926342276532,529.9950288835958,3307.58686875031,811.1199551670663,1102.3572164860493,2381.527685813795,1009.2306365909994,1317.469308792161,4172.450195281692,2675.21406674206,2935.089236289668
3208.904594865748,590.1087231542358,2381.153788635145,2782.459809705254,4210.116700532377,619.2700982335059,2443.646167533093,2826.608129063279,3184.4759843360653,694.2071445296963,157.94586111546778,630.2256618014924,1177.3625970896064,3089.351138973843,1193.4498545407366,1921.78831682931,872.4115487870038,2387.617334708675,3304.117352715477,2324.578549285316,3378.594826556946,2972.154611418872,3199.029319829234,2591.279494059888,1201.9471290581,1771.3034473622658,1296.3572730570058,911.086041023445,3033.8237925389567,1269.1942134134415,1550.3443307528992,834.8792681602156,1550.3443307528992,911.3315428271368,474.2650407367808,3386.567572718141,784.5804385940964,1136.3634920128884,2397.0864405273937,873.7369496272706,1529.506291763439,4384.533655089483,2492.223613389609,2957.838176121951
3257.603469253404,705.7023210981654,2529.6640850423605,3074.8414046570488,4038.445666355408,835.7237363367199,2382.9744723386543,2817.700944997692,3110.959944272576,499.8267596816754,308.2859135443289,595.0550139167876,1163.2371352324883,3115.083678984501,1231.0501381176557,1883.560187990341,831.8650310161577,2317.3363387427635,3344.8779326202025,2499.628585599452,3355.235241896594,2979.904092970628,3128.640464107164,2482.9165457850627,1277.2693217120463,2103.41107758112,1275.704763663785,792.7385894357146,3151.7767161781767,1249.9472742782727,1523.9315325575285,797.872677527793,1523.9315325575285,850.578913400492,459.9679994891501,3421.783193377536,769.2944961253802,1130.5997649710207,2415.4862115248143,777.3296482616713,1839.196903625892,4456.59808387389,2110.45777292032,2983.707283372324
3309.9322327921464,808.3853484419199,2667.1385798839656,3280.658636785576,3668.6077165223633,1069.5170640632805,2305.1277367010384,2772.755039204493,3029.8302333366,339.4508472835589,496.070079912025,559.3723253652315,1141.6088944910202,3142.8723532554704,1264.7842253334336,1848.5437282613923,801.883730570243,2272.8374606670377,3388.2711219428666,2684.892795040128,3262.3735117422093,2982.5835960605245,3054.701635745453,2409.047221998864,1349.0650505336014,2439.623430266154,1267.992397120619,685.041555164069,3210.1025414429128,1228.2351908587627,1487.6776565218904,766.6368308238934,1487.6776565218904,807.3525445777757,482.3885864468234,3409.916195861452,759.831834433392,1095.0095532656069,2437.2122155031066,721.4592140722737,2192.7187418715685,4424.777562853987,1785.514973402172,3013.182135251286
3365.802005282735,892.5988380164424,2785.199999634641,3394.8303975183508,3219.389596213725,1315.3689215129011,2215.4791144070505,2714.3945792179416,2944.552693870026,218.22673703050464,701.1338918923077,525.3829461950061,1113.813398638937,3173.0518022494603,1281.3927591991578,1812.8839916275087,785.0880522463588,2261.9690916487293,3434.4717007691734,2859.642494436396,3065.5570112189016,2981.880287123144,2985.8835312351225,2362.08821397229,1413.272881828495,2748.890763345871,1272.370314678108,601.1556902783605,3209.852802640339,1204.2056701662927,1448.036667162441,740.3685594469193,1448.036667162441,779.8233781033707,535.7075539370194,3354.430851746279,751.5064353353905,1046.4851868848168,2462.486773351147,704.8472792811738,2514.572975889904,4333.6133722203695,1415.4514882597657,3046.180265515215
3425.0801472482226,959.5327292479026,2877.424286703928,3429.006199393898,2673.569394043002,1568.608781880801,2119.598664161804,2660.7521604011645,2859.4798819244907,141.0346349741078,901.191572607135,499.3780370959532,1077.9169722732918,3205.844313219944,1274.2263815966808,1774.292162378335,782.8885943505354,2290.716654861238,3483.670334411777,3003.682942174397,2748.6969172360955,2975.402828100486,2929.377052130103,2333.215746750562,1467.1085814130695,2997.330739547023,1285.957551362192,547.8851576987961,3161.867946087731,1178.1329305202012,1408.2422354544096,719.1398932763334,1408.2422354544096,765.1281539145009,612.219386570493,3266.4967656074155,740.9890673576467,1005.6238587508738,2491.437932816929,722.2544752638696,2737.992134549918,4224.331711986593,1048.5128798864116,3082.2377431135724
3487.8582558661456,1014.2540920574028,2941.7615576513504,3405.928346665969,2112.2641497102964,1818.1817730147927,2021.6148398003563,2623.019487351637,2778.1779366362857,114.23534019866634,1077.2061007141926,494.1982963521912,1031.3898875976447,3241.4553643979134,1245.4460886469506,1733.888187137115,795.9286005084848,2359.8202769052887,3535.9810333363585,3103.8439618643324,2337.6499684373857,2959.5062535077104,2889.570193415361,2312.905220423307,1509.3815414956211,3152.646493447892,1305.024840611049,524.69590439888,3082.712833961456,1150.2945123127447,1370.1003176163904,702.8114444147252,1370.1003176163904,758.1756201435858,701.3094984072302,3164.903738343154,726.4923656507988,992.5107432028308,2524.244054607691,765.0770309017287,2827.629613160372,4127.167640389807,733.4034995096008,3120.780961434328
3554.471437169236,1063.281756100824,2981.4951989359006,3352.1985641462334,1621.3254840905147,2047.531229900137,1925.5489823902224,2605.307791723314,2702.7586918476027,146.50314191060488,1215.381265925197,526.3066449054406,974.4176950472856,3280.4951645119527,1203.8606444346433,1696.432609664112,824.2684459897412,2463.1212988457223,3591.432953238532,3156.934274681831,1892.87180261286,2932.0486152919166,2867.458241157279,2290.4696334585583,1539.6878963144725,3182.447828828872,1325.685262826105,525.4654801629283,2989.968279799801,1120.829828409348,1335.4340818520493,689.8484567271378,1335.4340818520493,750.8901522086635,788.8049012111289,3074.465562567667,707.5925677043629,1021.7680829375244,2561.171876778027,823.3803851811522,2787.785569376464,4058.431283096017,503.4526258656765,3161.3791924169345
3625.236078097007,1112.8376349661437,3004.0425096542767,3291.8001386366686,1263.0754905080694,2241.0953449734634,1836.869905817484,2606.138379976888,2634.225923922611,247.62058334109724,1305.5330847353412,605.6420181353792,910.444405830836,3324.872869338189,1160.4985608235763,1707.5481623672858,867.2364094275197,2588.0886099722584,3649.162178439092,3168.933904702175,1483.7120793562024,2893.608691416108,2861.0510884736777,2254.0743412391507,1557.390371010379,3060.286407023615,1345.3466580397449,542.0978180564605,2898.330317243388,1089.7029936216757,1306.466007326158,678.1656203091402,1306.466007326158,733.1334117180418,857.6438991765829,3022.592101774299,684.807911230409,1098.72850309747,2602.562081008043,888.7756661977924,2656.0405838051583,4021.611493759941,369.49574866071634,3203.8454077710912
3699.251128489152,1167.8358602363917,3018.419844809093,3241.862137239368,1062.4800093936929,2389.9866954141003,1761.691559638638,2620.727256016248,2572.879191018061,425.0697385952524,1340.5912371374557,727.276405356924,844.5897682753684,3377.790424927484,1124.9374481323746,1691.807244602798,923.3465365604022,2718.3941252084624,3703.871099810717,3151.8449381659634,1164.5960918943872,2846.910753960673,2866.4279730637068,2192.293404898727,1562.1118164258223,2787.590104012572,1364.1583463823586,568.0447003666288,2817.406473704743,1056.8340415735524,1286.2130258554726,667.2583487760558,1286.2130258554726,695.3355714760346,891.057038018243,3032.968936427076,659.1400009264507,1218.7034461099786,2648.787634400999,956.053614358516,2487.6035253753325,4011.028611991324,321.28259627892544,3248.225983456205
3771.402117983213,1230.2577553929486,3032.024906697382,3211.1539193984354,1007.993965820938,2493.991854309744,1704.8329069172314,2643.3483239616944,2518.523533345832,679.5189924737115,1321.12202761645,872.8071519025884,782.5904809000815,3441.8198806351875,1103.7236260028935,1691.5645923948796,990.3134425280984,2837.524371038551,3742.5389403116487,3119.786321888784,961.9434215328332,2795.752202941431,2879.033664415313,2096.813980043894,1555.7677298261826,2407.3218127725627,1384.9315670317235,599.624083621741,2751.3318781173666,1022.2401417783208,1279.337283366487,659.4602209496961,1279.337283366487,631.6783874717967,877.7269668844572,3116.492495678967,631.7441022445594,1369.6796530739268,2700.148843262208,1022.1308437816932,2337.922867159657,4016.385976331845,334.51414910434914,3294.7956747545195
3830.6471523402097,1296.768206466587,3047.865761083118,3200.980241514574,1062.4357759352797,2560.490717404647,1667.82436809439,2669.1277657997603,2470.6357290283013,1001.57602339427,1259.988152220841,1019.0326042689398,732.6034853353331,3517.011892928152,1099.943526573967,1706.3387408004874,1064.8418132347488,2931.996736974008,3747.527582235902,3085.520778365424,872.9098020190127,2744.54031279771,2894.82930869809,1965.025907101911,1543.9609300525392,1991.127670409517,1478.493847953475,635.2189700784843,2700.1153642247564,986.0506988690776,1292.031519072194,659.640058252613,1292.031519072194,542.5535513393381,816.6872140743424,3264.8320962508824,603.6877613694871,1536.9348002028305,2756.733739615418,1084.2847923762686,2249.49624272094,4021.9939899435576,379.8142322621302,3344.019559323204
3863.274983128078,1358.6211639667088,3064.235194037869,3207.60818852628,1177.8274596243732,2601.6442415645897,1646.8300483002015,2694.880785575161,2428.4803798510807,1371.8339652330271,1180.6299894148488,1147.2971273515493,707.9117434809611,3600.890292293441,1113.1457691439514,1734.6747066525063,1142.2381282232388,2993.651598676774,3704.721945560352,3058.1871520259247,872.6882880162657,2698.0005835372385,2910.972801565553,1803.3762211019805,1535.1514603517985,1613.028234911303,1515.7473665958737,674.9699740347983,2662.354450443579,948.4612043755388,1329.9528052506175,673.6806300734656,1329.9528052506175,435.5866479147694,719.1957422619128,3452.6480178922648,575.7428976180006,1707.20241850999,2818.409671584084,1139.8005451154972,2245.594763280647,3997.044453657677,430.56588633549904,3396.265259345724
3858.320217645906,1405.3259983183866,3076.9318366313137,3225.073250543248,1308.9274108234622,2630.4121869158207,1632.0347123328615,2719.201145976532,2391.2301178643984,1763.601418360609,1109.7885477759658,1248.8028724511018,777.6654337411098,3689.7159134080166,1139.857318787392,1774.2942298851704,1216.6580505047532,3020.618839088421,3609.9211694793953,3042.495903700764,925.9210920703358,2660.6092700961285,2926.002926530464,1631.8919611307267,1538.2668337176997,1327.346261945127,1563.085688442132,722.7125724100586,2637.307568341401,909.6814446265524,1395.5571718771716,706.067121815134,1395.5571718771716,324.84653316271806,605.5410769949258,3647.2936664699055,548.3025555916329,1871.032937893377,2884.973059703132,1186.5638138508066,2329.3278087224635,3897.055052508108,467.8883132953342,3451.433576979427
3810.4680416061647,1429.669112586687,3081.998776106339,3247.403538812681,1422.260916582769,2656.143599270646,1610.7257159421383,2742.20235091873,2358.152418889563,2146.396744943646,1069.4063672230818,1324.5873478464982,853.7663917835825,3779.8905468095672,1174.4871211912746,1821.153921017003,1282.6782783372528,3016.574767144632,3470.090353705169,3039.175055132261,998.4376827236512,2636.025623327764,2939.6906310536406,1481.516945448862,1560.4813278667343,1157.9939514878904,1619.515385323086,786.1175497911436,2624.522948084309,869.8694329167301,1486.5981023835195,757.5887217039358,1486.5981023835195,228.09148093735507,498.1249380420745,3819.7785819274095,521.4225438858998,2023.183494161617,2956.280534014917,1223.576107362366,2484.7693726588345,3691.425933413055,482.349471846926,3508.9719027112287
3720.223978781519,1431.4153742042934,3077.455650669199,3269.943239891818,1499.7441951807823,2681.4491355466776,1573.322030655057,2764.356155561712,2328.776056985321,2489.7490542996,1071.31618901023,1381.9655386987893,991.010325397814,3868.9048110941058,1210.2355463904005,1869.3796191246863,1337.4263884538673,2988.815650595392,3299.8415597347,3046.1952068851933,1065.8630377248317,2626.2997564403554,2952.635505924726,1379.3575781235063,1606.0087423472116,1099.2520446404446,1682.1758243980953,871.4464602554067,2622.435322323946,829.0633902853017,1596.3264073036532,824.45082463889,1596.3264073036532,162.65727889802724,414.72653201230287,3952.079954361642,494.8924448422722,2161.854851390425,3032.310793930332,1251.106329352576,2680.852329795457,3389.163225460806,472.94441714157415,3568.3170557680023
3593.327377062668,1418.5584107423997,3063.7673688033988,3289.9965569137685,1537.64186620719,2702.1151426783053,1518.396509690786,2783.826662102329,2302.9036509449934,2767.507295351209,1116.2626873588906,1430.7720369676113,1183.2461903413346,3955.4254952566016,1240.5641281729536,1913.300334613442,1381.8010120031995,2946.144054367512,3115.3896488697624,3060.2293711787115,1116.652359644294,2630.8575732750405,2965.698527734273,1335.0430324286897,1675.6578130120795,1124.3715731553898,1746.8901136534275,978.1559525094036,2628.08680313093,787.1569824259659,1715.1965222775234,899.0775531852896,1715.1965222775234,141.26073677814816,364.63260730939714,4039.256319168276,468.3455519844183,2288.1791359460467,3113.208767696274,1270.510842637446,2880.489899662451,3035.932681779588,444.4376756461579,3629.60527513852
3440.1205287790926,1405.956663098972,3043.358717243219,3306.9283121235085,1542.5155982499052,2710.0550344560365,1453.1700434582128,2795.0100952916014,2280.4868344022725,2962.1004537426056,1196.6071307157658,1481.17857216559,1412.8819708191108,4038.61145536962,1261.3910639560986,1950.011647355349,1420.1087125515128,2897.2125651755864,2929.239125874905,3077.901381486162,1150.223754931653,2646.4604046442755,2979.5773967757154,1340.1815462168042,1767.0947629012312,1197.2095315802162,1808.737821983076,1098.5911255420017,2637.968005307366,744.3007502204871,1833.3619562141248,972.0685061986312,1833.3619562141248,168.89919157254872,348.11427071268304,4087.300539403613,441.4347496178343,2405.871924483835,3199.155871436987,1283.8074109744352,3052.427309692984,2692.151443492167,404.2850241097183,3694.133477262141
3274.2638546175667,1411.8967348786257,3019.679881397348,3321.69065246397,1526.1157210682577,2696.997541877107,1389.5735095866698,2791.6313131966003,2261.530725505917,3067.787225351501,1300.607604738082,1541.9440887141996,1653.729689442236,4117.43155456666,1272.6258415825314,1980.156842934312,1458.028913839113,2849.376410862621,2747.796909806228,3037.1051822706354,1172.8818057090689,2668.1297739930897,2994.798054614373,1376.5174820681295,1876.0888737812825,1284.4897511628124,1863.02989631874,1220.9996433618007,2649.0127130751207,702.1495452560723,1942.8365120055184,1034.727985813097,1942.8365120055184,241.9806824669384,358.4663503595709,4108.735227126687,413.9581765936202,2519.458836348267,3289.668751961087,1293.1304936323777,3203.406499262395,2410.5662646554965,359.9965745112217,3763.848858882931
3110.540411805434,1453.6291590946416,2996.252558647873,3336.005233391584,1500.8025726190633,2656.597940062931,1338.9753490857952,2772.043101995708,2246.0801245800685,3091.8400326748624,1416.4078692290009,1618.33822738284,1876.596994628702,4190.300467401898,1278.7257824696026,2007.060641059016,1499.728175624741,2807.9046838891973,2571.859214737985,3077.326899128552,1193.2625707021348,2689.564838178291,3011.9071251679206,1424.447932000849,1998.2284610237632,1368.5328091127562,1906.824124861667,1332.7767343962455,2659.242306659253,664.9928820594657,2038.779154303868,1081.2835995642663,2038.779154303868,350.2885703866066,385.32332677888894,4118.031396082239,385.8139660082279,2630.654455931608,3382.3078611060646,1300.2089500982984,3282.1927863815213,2222.1572532122354,317.3137763273992,3840.200672021392
2962.0847164205834,1543.2795178884194,2975.904005849664,3351.5926504566405,1476.3746942141115,2584.7657145246544,1308.4277204877003,2741.935991906108,2234.1639959359463,3052.9889121564133,1535.0085094671324,1710.9212694771763,2055.7986537799343,4254.819815533305,1289.4448892285827,2035.5951777090288,1546.7825692162023,2775.591186946748,2399.018840375681,3151.4761692779,1218.0412302531572,2703.4940477538034,3031.452943476519,1468.5012512232474,2130.0001300392023,1455.063609748859,1940.357905168152,1423.0925119233398,2668.0819478807566,639.170182643599,2120.1963824562963,1109.8458277744503,2120.1963824562963,480.6710046503649,417.99135445006914,4128.013697826647,356.9332849750142,2735.3741540426454,3471.9622021087434,1306.0240493405863,3320.224138617977,2132.417015274476,279.3368423309953,3923.4250524900126
2837.628963968564,1685.57735407489,2959.6415531173125,3369.753484814616,1458.532348072796,2576.2423951808714,1299.355087348005,2713.1467759093507,2225.7182083871203,2977.354506756591,1651.9900467489435,1815.7627710990944,2174.112464942376,4308.088184865816,1331.6947034770392,2071.046090398702,1600.317630938514,2752.8712407924127,2227.2826795017872,3274.7534116484026,1249.264727533047,2703.1587030741616,3053.8059032513165,1499.5997283462511,2268.8538427091453,1568.2835384451937,1967.3238230779143,1485.074494542305,2676.3490273699163,631.0760212713385,2189.764279459604,1122.0809307170907,2189.764279459604,620.5840639600967,447.9088033008095,4147.554724379908,327.3559545097942,2824.519576307448,3551.9626132195544,1310.847996898838,3330.3079584030083,2125.996307469678,246.63676156865563,4012.472909828716
2739.8662855167195,1878.0473026682057,2944.6089099546407,3391.337802340926,1448.8184390111055,2432.6642169407187,1308.2764299472487,2699.515253435016,2220.631114348852,2892.837626520104,1767.3708100181825,1925.644071911508,2225.065840523539,4347.793455779109,1389.2726076612107,2117.8788735088224,1663.7546916535043,2738.435329517583,2058.5986220234945,3442.920473816105,1284.5365288813143,2684.011463751978,3079.060964926368,1514.905909837508,2412.361623079795,1736.355634836559,1993.4866401790744,1517.0236231610838,2685.73254182751,645.4932747408056,2251.926833672752,1122.1395543370645,2251.926833672752,760.3477088573036,469.8886888422224,4180.771698519164,394.9527616410496,2887.0021971340943,3616.4602163057857,1314.579006109387,3326.4146518323623,2175.774289114183,218.0482508559678,4104.65608801701
2665.9237640063857,2112.562366409265,2923.370405636107,3416.822563680206,1445.657211358608,2253.9922450377103,1328.711003936995,2711.5020854225145,2218.234696973042,2823.4945773817235,1883.4933369429828,2032.2095089072243,2212.688943717978,4373.260665684994,1484.3824971517022,2178.638338267236,1743.0824381253046,2730.111016204716,1900.1388739115048,3632.9167495613656,1319.2448586986104,2644.4350747039207,3107.017981647872,1516.1916862318776,2556.78507855142,1978.1031083149423,2024.426208549661,1522.023312517929,2697.998327780041,685.2550371222715,2310.060551557351,1115.0110397350024,2310.060551557351,893.8587819303316,482.2118085799243,4227.151153707207,369.71523055621947,2911.097852246674,3662.423330516543,1316.979805950934,3320.490751731516,2252.269538924932,191.5951873963156,4194.890385150664
2609.6008037761912,2375.757604385776,2886.8203108107245,3446.367719563782,1445.8478100782609,2042.8641866356568,1353.3855095813517,2752.305255265748,2215.5233252196927,2645.660333315714,2002.189592491631,2130.1039936319385,2149.476710124004,4385.783911744966,1616.854002449184,2253.3727584458265,1844.6914315787767,2725.6831537767684,1762.3170438035152,3814.0122876643272,1348.844110807106,2585.460699613944,3137.2643911864,1507.6328470018616,2695.932374668054,2266.691730008486,2063.487310289908,1506.2492540026842,2714.4631089532104,752.0615592054453,2364.9623400782134,1104.4826899094264,2364.9623400782134,1018.2849614124846,485.88895571238345,4281.889219482011,362.277419440564,2886.817633176492,3690.335065681412,1317.7127194601003,3320.677665700866,2330.734871426744,165.24222422303365,4276.067594786264
2563.711021503235,2647.723088895227,2828.399525488241,3479.9091568826098,1445.8898854531749,1806.9015664294247,1376.0368432210034,2817.555817147063,2206.2683478916524,2645.895764474249,2122.807760419153,2222.186170627239,2053.427694362274,4388.240644635442,1782.6486178653124,2339.752033201689,1973.0215160336293,2723.477730814576,1655.251355532651,3959.553416608938,1370.358263642284,2510.119780566021,3169.415526641553,1493.7780196649428,2820.797441711333,2601.879152926884,2110.6206290419773,1476.5911892643232,2735.811989625345,847.5599117918439,2415.670397014356,1092.0070927604202,2415.670397014356,1133.1556386562245,483.50047747090775,4337.131019118531,382.0489760289993,2812.60418050685,3703.645712916641,1316.3779935521777,3330.9330527748925,2395.049294667773,137.43002700258626,4341.14792187915
2521.418542846146,2902.5558431319537,2746.671766967117,3517.2006008217577,1442.9121483400795,1560.49353601477,1392.4410372057432,2898.387183878968,2183.324815362741,2682.878781406025,2241.9721025224144,2318.850108680746,1944.534508875412,4384.289025116969,1975.373377551737,2433.4055038666884,2129.030440630096,2722.6481332539543,1586.4177504672684,4054.345958236599,1383.4067497309206,2423.1485057904542,3203.304491534642,1478.2163363385275,2920.37413927745,2871.035225736262,2162.494138017393,1438.619332967025,2762.0987094621228,973.4170577266802,2461.409958570203,1077.9982088743463,2461.409958570203,1239.5416547621935,477.9986994938527,4384.488483293623,430.1210438165053,2699.8822879151894,3707.4833542829183,1311.863522289559,3351.77407047579,2438.547847695361,107.34636090037816,4385.544261050095
2476.8210159171203,3113.7544970828258,2645.88255622253,3557.67072475684,1434.393598865248,1324.2206257736102,1400.6591544736066,2986.026058359769,2141.8695646307174,2749.142238030204,2354.863133774154,2428.567450080844,1841.184356015892,4377.300085940755,2184.854436200422,2528.401262944587,2308.075285695036,2723.134697838176,1560.0905987460935,4096.5529682066335,1390.65179442544,2330.800119201652,3238.9588402180607,1463.05645158073,2984.336112160543,2989.905030971471,2213.548230837473,1396.0251481134706,2793.093995011211,1129.994924229121,2502.8801403732896,1064.5405188967566,2502.8801403732896,1340.6241773467805,471.8693958517295,4417.639841318718,498.7569880856179,2569.487358592612,3707.2059969137695,1300.4402072708167,3381.6474393884937,2462.4253496888014,74.93186766286635,4408.392608105888
2425.1336490989115,3261.91405599247,2534.57144707763,3597.150520094263,1416.144514377496,1121.747779058746,1400.7106201590111,3075.5041022995124,2080.8674887371226,2834.7267439573075,2457.2227068065126,2549.5946732920406,1757.6233163326892,4368.295659824554,2395.373640406939,2618.3042640822014,2513.6849617682983,2725.3624056195304,1576.974978881523,4095.0873180510753,1396.9927156174103,2239.9173560861977,3276.510425370251,1448.9781291623167,3006.685629516148,2926.96864159274,2261.012627179175,1351.504781310112,2828.846825737912,1315.1774631800097,2542.1210885935584,1056.5180646047702,2542.1210885935584,1442.096519295267,466.79804652886514,4433.808539702988,575.0249343065009,2443.6919204448814,3707.24262662064,1275.658944736857,3418.363082914924,2472.790112188895,40.70656160263297,4412.404486060634
2362.579655460489,3339.9210756156344,2422.833964809851,3619.421943822525,1381.872424073606,975.5754371502344,1393.9283450833263,3166.447198507814,2003.132272619472,2929.013559989748,2547.12048531535,2670.7475200548643,1703.3641335991042,4352.439580762353,2587.7733564661744,2697.5538138406464,2705.558574255768,2729.8938112958863,1633.4542915232612,4063.526516731356,1407.225594140552,2156.236143452393,3316.148120490596,1435.573979072043,2988.143600535631,2712.085236866959,2315.827669017084,1308.427776450908,2869.858334918313,1524.9164422603912,2581.1817851114647,1060.1319865641683,2581.1817851114647,1549.887571469667,463.5967421877249,4433.855397480971,645.5161486341601,2339.4247386864754,3710.450518204202,1232.4743392768885,3460.024205599955,2477.5692913436856,5.484560156985936,4402.696116958296
2286.4422731963787,3353.504985738058,2319.276929318345,3594.3941072886546,1327.0857969152985,903.0871543350048,1382.2310121948367,3260.741729788393,1914.3900947738323,3020.812223899421,2625.003289238577,2777.7107566406585,1683.8640769966162,4317.488255478634,2745.035307221398,2762.792189806079,2891.820509280069,2737.229784377042,1721.765727070974,4011.890108781669,1423.0745956247852,2082.897139531855,3358.06996059847,1421.7583721335714,2936.1708249216845,2413.657345902888,2403.8754540093087,1272.3806206586028,2916.708358627071,1755.0554021953865,2620.494313321215,1080.230380522411,2620.494313321215,1667.361839597489,462.21108099477806,4421.329521292974,700.7201127267624,2264.6677450891616,3718.006820290514,1172.5126517172007,3505.3342456497635,2484.641690395993,-29.92610378351128,4385.218119582486
2195.538113408292,3317.9062443413804,2228.304375874877,3493.550107524994,1253.1569133536564,913.4785271910356,1367.4822025572555,3359.280656366167,1821.371455918993,3098.320160789613,2691.772811538,2859.158816228889,1700.8918518567416,4248.980857372532,2857.3327998511127,2813.957881601594,3069.959371721409,2747.6645193417307,1831.9461875730613,3941.0625903830633,1441.5913094155633,2020.0188794431929,3402.474188252289,1406.1588645732074,2863.2230793456715,2108.67701093314,2545.8838049194483,1251.1817298465426,2969.572443207401,2003.0921621809405,2658.3237512982714,1117.981087408517,2658.3237512982714,1794.762320602841,461.89193795128745,4442.468634867416,737.6557032997412,2218.786682286574,3729.707266696864,1107.5123825084438,3553.697122603608,2501.6909287231774,-64.94779336267584,4365.339218522522
2090.4110286876635,3252.7076552650715,2148.948040233858,3308.227017329512,1167.1563207205268,1005.9358421141488,1351.0357870571258,3460.4374446524025,1729.822329578547,3150.582071263294,2747.1301502526912,2910.21087771323,1752.1639442227877,4139.650783585639,2924.17216800295,2854.2768525868605,3236.472802685762,2761.178498958721,1954.660057629252,3844.919263069506,1456.4864196618005,1965.4459620656835,3449.618867684887,1387.5330784862572,2784.0457138088377,1859.201811186767,2737.406874409649,1252.9401184480748,3028.179903858504,2268.6401130750683,2691.805851390576,1169.887820079191,2691.805851390576,1930.002015260317,461.59402595014217,4340.345526396482,759.7886913372415,2196.50815847307,3744.480186740233,1058.8382048633698,3605.157992963128,2535.327036129652,-99.33997049753408,4346.922935803241
1972.729589600774,3176.860155060373,2075.810104866113,3053.3538986071744,1078.714672785842,1169.807383574525,1333.556091874014,3560.851047596548,1642.969912650822,3169.7868784986704,2789.8182658555897,2932.866088901637,1831.4009744962127,3994.948506644208,2953.5261889863623,2888.8372857312543,3386.337565252906,2777.5903666819304,2082.994497076829,3717.908407790793,1461.6021307682995,1916.3330773273508,3499.825193990656,1365.1254107418945,2712.1287845966795,1699.9104316708988,2949.7327009757155,1283.1075955855058,3090.9678297315763,2550.9945234915185,2718.5781108045303,1228.4148718209124,2718.5781108045303,2069.447849599976,460.4151157246645,4071.8938970400704,774.8095608263784,2192.4703720263374,3760.9293782505792,1050.7287036099506,3659.997889878464,2588.063754027326,-133.13521607522762,4331.997532322666
1844.567919923377,3105.124845079899,2000.8186725974376,2758.9802662704083,996.5923048677464,1387.40262065983,1315.097450745142,3657.172038546008,1560.61908935543,3152.636446502692,2818.915690506004,2934.1885518789886,1929.9715628117224,3831.5157810274623,2958.7160433779163,2922.886858640012,3515.299415530353,2796.871216322356,2212.0078355103137,3561.013668523041,1453.9683689811486,1870.942598747988,3553.395026455526,1338.7742181682438,2656.2232783200834,1635.9749368904586,3144.7085456913064,1342.0207969132418,3151.349052274357,2843.3460004222497,2737.795464628317,1283.9642092349382,2737.795464628317,2208.6621217873508,457.8123635416571,3565.2034148275943,791.7976807621712,2203.1937931612947,3777.7701520246446,1100.3718276222403,3734.352360014863,2656.2989431649667,-166.47581402511378,4320.128513224273
1708.1860853656754,3046.3313878928893,1916.016806568115,2458.434522827968,926.29554852194,1638.9780127846511,1295.307416933015,3746.797354542648,1479.8011669700552,3100.458138762292,2834.873730537542,2923.5251168313844,2039.6639597557428,3671.5191453572097,2954.319369852168,2960.468189712835,3621.6197430368256,2819.270266727733,2336.845549075443,3378.5621175664264,1434.814117000968,1829.9664745503508,3609.405652783383,1308.752999588038,2619.1140073416896,1648.8172096632247,3289.877792224682,1424.85528173935,3194.3809486556293,3127.7159545877016,2750.23747768472,1327.8723209946486,2750.23747768472,2343.480508225798,453.5897741449865,2839.6681314149378,818.6497117761216,2226.541516183268,3793.459521890401,1210.9267412200172,3777.5087580197287,2731.62018677602,-199.49334080365315,4305.869754404545
1569.797854395507,3003.377484230361,1818.283743400039,2178.002189051528,869.2468172431929,1908.2738508407483,1273.6642745843096,3826.651487391485,1397.17313744728,3018.759435500046,2839.82584926772,2909.920222103422,2154.566880247673,3536.0361226578225,2952.601201817103,3002.919618643953,3707.001333018574,2845.1380434720204,2451.6930044015025,3164.959397957219,1408.592435650612,1796.6227232035344,3661.792332908615,1275.517027025212,2599.309084590124,1706.4428150278309,3367.6630790169543,1524.2729482405389,3199.2288436556146,3376.867211257929,2757.869867746213,1355.2956279870818,2757.869867746213,2471.379869094398,447.82288037544254,2007.939114925149,860.2430789266846,2260.7011347779417,3803.703362231713,1370.2272125471577,3781.0463143822135,2804.369134016413,-232.2501271598203,4275.99346682426
1450.4875292616632,2974.561147995298,1713.4158130265407,1930.798355855764,823.398695225646,2186.03574194251,1249.6975499979187,3892.108570756938,1311.419319692695,2916.287594050521,2837.195849123753,2900.338170968977,2270.8182908257163,3439.3608566677185,2961.473559489504,3047.7194269896627,3776.770758986682,2874.656766222241,2550.943930105903,2900.6206427542343,1381.0068058439056,1775.17117490321,3696.007642525361,1239.4931685075487,2593.363377231951,1773.9050736851998,3377.425954347232,1633.0344274245208,3146.3016753273696,3563.407195472106,2763.2276840240784,1366.2839922228263,2763.2276840240784,2592.4862874872247,440.7663155286709,1231.077519736518,917.9700894625572,2304.090558470773,3798.43053020333,1554.5788245933004,3724.519090203741,2867.7348033613207,-264.1942627177018,4211.647105781793
1380.5664065578055,2955.5854383613373,1616.8115511835624,1716.1677683718235,784.7374447793625,2468.4424495390167,1400.654343681555,3938.189721712397,1223.5005560637517,2803.134333095948,2830.866708481818,2898.850449749318,2385.3331470361345,3385.3780857821216,2984.119191343703,3089.1109357547684,3838.275982764676,2907.761817902069,2631.0720072684853,2571.396041741408,1357.4735950192298,1768.674154276397,3692.310459814943,1200.9323806574814,2596.819385661742,1820.3957552655336,3332.096043689985,1744.4085729301692,3024.7581289635777,3669.7221863179057,2768.8194832989866,1364.7732745403905,2768.8194832989866,2709.1779111253145,432.7255539757202,663.2776104459908,990.463799564333,2355.810493075058,3761.164452590925,1735.695848756448,3609.623425754462,2920.336582176169,-292.32568891366554,4096.54366657471
1396.9941710997473,2941.531258202692,1551.0139107495802,1523.8952210452312,748.9069633645779,2750.5769616377142,1377.6826672207926,3961.714868114224,1134.6401555791874,2688.0996828198595,2824.34660398093,2906.6740351670346,2495.299784197311,3366.658271790314,3019.861095909531,3120.5132678740533,3897.7562180202494,2944.296702157286,2690.5118484319164,2189.5880675523445,1342.6007056523424,1777.6088979091296,3634.434249609809,1159.8991054602902,2604.118721816376,1822.4044818114032,3252.0184090088937,1851.4596874599404,2837.099116625015,3693.227969543585,2776.668900390141,1356.9323203105268,2776.668900390141,2823.420952484432,423.9713469442829,407.31202810965806,1076.8267087628465,2415.260931628572,3670.45125297768,1888.633216494604,3460.2994425586503,2965.902426997125,-309.3688079438157,3925.810711378532
1465.4377657370196,2928.289786348636,1541.453662211783,1340.4154922717871,712.3668383259333,3020.799501622068,1351.5860024335402,3962.423130540432,1045.4545309341934,2576.225206958813,2820.249985920173,2922.8289280590934,2598.7078886754466,3366.983349109566,3065.7453186610346,3137.0922528132487,3957.80189706622,2984.213693893521,2727.392944097873,1793.3188276318892,1339.7564738562933,1800.3525534096332,3516.795463020561,1116.4381219563463,2609.6345280894675,1765.3895253053383,3158.518290955174,1947.0209818858584,2598.603428514029,3645.733709372184,2788.0382043331683,1349.5706003375149,2788.0382043331683,2933.200885479402,414.746184336414,494.1230908659802,1183.334145854054,2480.7160985671344,3506.7983214421874,1998.091716513995,3311.0546636803465,3012.184438134868,-304.5055135468565,3709.385988338683
1534.419378778818,2913.2998616573914,1611.5269184622362,1154.2912754486842,672.9596044486811,3261.51223209052,1322.5119510091388,3942.178658507744,958.4796548039116,2464.838029174994,2820.0828062104174,2945.127742867769,2695.026403350404,3367.1239791688813,3118.327903735049,3137.2012993003395,4017.053644347648,3027.5912014609667,2738.038259103429,1430.422247063762,1350.0011716454198,1834.587410629775,3346.525299858712,1070.705120928914,2611.624981101818,1646.8986305687586,3068.9734401711294,2024.7497229800952,2332.4506880985946,3548.644535352938,2803.359347070227,1348.296772839081,2803.359347070227,3031.4172383285936,405.2578017394917,888.3088253107308,1329.970912780504,2548.386916181488,3266.9796022553774,2060.342496562137,3193.9972360637084,3070.807365735882,-266.3887374625788,3468.2762876684874
1560.3738537564184,2895.689633943367,1777.0786907542422,959.8690404203304,629.9623976455364,3455.3029875725224,1290.5668028704522,3922.9328520242793,880.5028614043358,2337.9077490539794,2824.276652513206,2971.1445608620265,2784.9141550391387,3351.267653003964,3174.996965703582,3122.462824815981,4071.887231949549,3074.4630257336703,2718.762668835628,1141.6722116053534,1371.1647927928468,1877.760467233982,3140.866800792471,1022.9390311875457,2615.346894228875,1479.4170899286885,2994.205313774306,2080.877557143471,2063.1587628077355,3426.597448845533,2822.394085571257,1356.016678799108,2822.394085571257,3108.524810189924,395.6107871478862,1509.2904854086285,1515.5470044865156,2613.169847680483,2972.618714999481,2080.348777609025,3129.8550395866782,3153.630495655599,-189.2078249702217,3227.004504764051
1527.2761435810808,2875.9737240755467,2039.7527419717385,758.7322892026605,583.7322391427388,3591.541839829248,1255.7948372386682,3859.671279940091,821.2736707654071,2169.944942798876,2832.48275249953,2998.3141942602065,2868.203661068158,3310.882699124558,3234.370605592,3096.8610524364976,4118.608127377872,3124.755303745505,2669.426738013959,950.53767447437,1444.3834317794008,1914.1415570411384,2922.2450009433505,973.4204953480332,2629.699456536837,1287.8396042334205,2938.166300128604,2115.794258232278,1810.585001321465,3301.687634370262,2844.548293413369,1372.6440105238482,2844.548293413369,3156.761173703232,385.8210953700393,2252.534003377616,1736.279606859417,2670.4830164412083,2662.705002654781,2066.510107035391,3124.759153144208,3264.486774681175,-83.62062906184383,3006.974234342637
1445.2377758942216,2855.4843288471416,2381.0609860366326,558.9422016145581,536.0638668891315,3669.7428996924073,1218.2774438111596,3769.879487591819,790.120170884808,1945.021700742092,2843.972557347983,3022.944331177542,2941.549984842584,3245.139410830456,3296.0841318692683,3065.381827925772,3958.574406367459,3178.465267901078,2594.9109862022983,860.5029493476518,1469.1968940914514,1984.2923453746369,2713.0718850346666,922.432246917431,2660.2997765772834,1101.2219053093038,2899.333485664066,2134.3473793434305,1586.6855397948457,3189.658743659793,2869.17388103587,1395.6921149672764,2869.17388103587,3173.269572758451,375.9639261943869,3005.686456516012,1967.7922332530363,2717.788540802302,2377.404771899773,2026.163693963349,3172.143590897684,3394.607433781187,18.61839555572624,2823.0652213475523
1339.386496256015,2835.774126888795,2762.499828561716,372.8369348297506,493.0030569934802,3698.898878563381,1178.239771871135,3655.204955191971,793.0484755092582,1672.7231902506032,2857.9397972216966,3041.2265533205127,2998.52480501741,3158.917779775188,3360.411053309116,3032.6988698359346,3985.0003243439614,3235.974200629424,2503.7005848644176,857.9278504810422,1484.1020637293643,2093.2462633083146,2531.0576469502967,870.1600884183008,2706.0161705703595,943.7605350337636,2872.928295430356,2143.9866915799603,1395.7386622080812,3098.5343561536124,2895.738667371622,1421.845784687514,2895.738667371622,3160.9092525859755,366.27381347765686,3666.685333755992,2179.951621235724,2755.106063453398,2144.787615563436,1963.8003472943644,3257.7062063294743,3526.4154276976205,78.95771954634256,2682.8341990313943
1237.366631270153,2818.1766195681544,3135.123967882538,214.23261070946592,468.1968676617737,3694.010302506468,1136.0475395245423,3526.6199854028764,831.4757184384541,1385.322525422068,2873.693682377113,3054.121901646068,3032.5038043212435,3059.665768830787,3427.440542723632,3002.2751382384795,4003.1909758376046,3298.165961328763,2405.5679425776866,918.1468708734978,1481.3394276035806,2254.3756331452046,2385.684960959636,816.6271146134559,2760.341988013852,829.0905479999615,2853.169158299008,2150.8828819541363,1236.5802977248857,3029.372221825444,2923.9289682419467,1450.123758134347,2923.9289682419467,3126.97680665091,357.08448442673284,4163.677245279136,2348.754816172568,2784.644969574119,1975.696037829973,1881.847983271842,3364.978105539744,3641.224355439585,73.83488327592045,2586.9308865454555
1160.1776221611417,2803.572076968404,3454.3995351211884,95.65978348543696,481.74350266674537,3671.705847685864,1092.113658622195,3401.171629504471,902.8558641052628,1122.6572472411754,2890.796006450343,3071.7040461806514,3039.936695855589,2954.3931658233987,3495.2835249141635,2975.9930224613427,4015.8652387682223,3364.450180345013,2309.6807607610654,1013.096237066668,1455.5573068293306,2458.5116885628786,2277.3302360977345,761.7029522291691,2814.897285215994,758.9994990804555,2835.0433780064905,2156.4183566393503,1105.406708674731,2978.369166444949,2953.736392946792,1484.0063279690494,2953.736392946792,3080.847650999672,348.692498277404,4467.026456627782,2464.128937203279,2809.96633944597,1865.887878241804,1782.3874674706212,3479.0834742473253,3724.7707606458807,5.1355958694884976,2530.1766310143107
1117.9547324470775,2792.350119938892,3691.5703418020616,26.16456989663493,553.8265162056621,3646.550252649962,1046.736839076006,3295.552340296241,1002.362883260868,917.0771493049972,2909.086423105904,3112.355244855022,3021.9340006298416,2847.988794171565,3558.39079454598,2954.2521672977064,4025.952777011208,3427.6476768001426,2225.10323813131,1118.4839502687262,1406.0704442161823,2676.7809580291687,2199.813197954937,705.530224679801,2862.6527413857893,725.758788696789,2815.362186646976,2157.429742402058,998.6165129597962,2939.410666802086,2985.372659200977,1529.542672278257,2985.372659200977,3031.6008160972847,342.4714638944531,4588.334374238224,2530.932854483671,2834.9697789216443,1801.4500681716104,1668.5128274119347,3587.718072909891,3767.0977188369006,-103.42845669495682,2503.1881396612253
1110.119860785952,2784.5178087349805,3836.0660771770463,9.23983396953281,697.4059689983883,3628.796841669322,999.9524511000268,3220.885527429162,1124.2358947142548,784.6400838687264,2928.5777633927823,3195.723567389557,2983.8471841531496,2743.32394901186,3608.460309022251,2936.408216006706,4035.9030410318255,3471.261357592707,2164.166723425167,1218.0024823747738,1338.3326433983657,2874.7335966900296,2144.7874306949207,649.7416584005689,2899.741789971487,716.3448876904815,2793.069365092696,2150.16809881108,915.4679602733976,2906.3219790150706,3009.48336741287,1591.6857734034018,3009.48336741287,2986.3696821251724,346.0337390456639,4569.075883839132,2564.405501793638,2862.906912298673,1764.118963495514,1545.174820775102,3680.9948390092113,3755.9990461329735,-217.4929455944025,2494.462700078404
1128.362328925556,2780.464892652397,3891.77296828548,40.81273329407122,913.7771911439808,3623.607347287169,951.6082597862433,3180.488628060597,1262.6035128737344,723.6386222956182,2949.342580116724,3331.323551411692,2933.561046633988,2642.516736938974,3638.212705115401,2921.316248314518,4047.294341360226,3474.869914151868,2141.212622509587,1303.2437959101744,1263.438649902787,3025.3960493875184,2105.2857181773625,598.0818961972464,2925.758806816239,717.9208693439864,2768.909273704072,2133.9498042002924,859.842836166235,2874.375328456306,3045.9021529883066,1672.005034390065,3045.9021529883066,2949.625497147098,380.6343636709769,4464.500932085053,2582.9744066374865,2896.010627445231,1735.758385676139,1419.5595120690791,3752.022700159841,3669.2590076199504,-304.2457123472077,2456.675000610164
1160.7685471849777,2782.7378971740827,3873.462293431707,109.26086680486992,1192.1289597055827,3631.570748877059,901.6257905888752,3170.5590779819195,1412.216528111028,718.6929100698346,2971.469915117371,3510.2966171053663,2879.3851169113946,2548.102400140024,3644.970531264829,2907.774572882692,4060.756073006004,3423.617860939052,2162.4439215067355,1370.582720787731,1195.05485709864,3115.973938861359,2077.451920095837,555.0154797105624,2943.079374084926,725.4489695978591,2744.6859909418067,2111.755756826929,839.7105818040507,2840.933828153968,3084.8339580187244,1767.6199121597142,3084.8339580187244,2923.125977826063,481.7397615138364,4328.326009889623,2601.4307030822333,2935.8478612983813,1702.1750973512458,1300.527424658812,3797.91665965864,3480.807902071468,-341.5742917823127,2440.207801487832
1195.6749458375284,2796.330209403317,3804.0095007918553,198.4855095764872,1511.9113684728022,3649.153219188896,850.0982671272354,3182.6620617601434,1568.4139332772638,747.5350653435812,2995.0784808305525,3707.508938952146,2828.2231060621475,2463.2381036624206,3631.223130934716,2894.833532531938,4076.1310157027074,3314.6095527080274,2217.5513882772234,1417.6996639668696,1144.9310470782966,3147.639827660997,2061.028092314804,524.0939319578888,2955.780849234505,748.821400265261,2722.396615018729,2088.6409584039097,863.7506762024409,2805.378893309705,3126.5251444782566,1870.9623347276013,3126.5251444782566,2906.3175726698114,687.5428680128698,4201.921445173959,2627.285762577105,2983.3789318840777,1655.220457868135,1196.8603753589468,3820.070796677704,3184.027083420582,-322.95998042112706,2388.4400543862066
1224.31051641149,2825.4838516113723,3709.935054290156,292.2694761995649,1846.36452932986,3666.592713348552,797.1466852255746,3206.739298769836,1725.9804696561464,787.7532452992386,3020.3460461982404,3891.867859096868,2784.4826450972905,2391.016514066186,3602.883053425425,2881.977070378084,4092.76620669978,3158.0128709030137,2282.45004792824,1441.9308260946605,1119.1470915084465,3130.7205262434645,2058.340300350902,507.9853876703744,2968.36228484034,813.1163556573633,2703.546371882841,2069.7079259068755,936.7287938964698,2768.5662007978176,3171.065014022541,1971.0833439486348,3171.065014022541,2897.0899132848976,1022.052903940098,4109.405001564201,2661.1004634582664,3038.519255594387,1592.269970282553,1114.9055719638195,3823.326968769168,2807.961197908251,-258.355015919492,2282.9447619063085
1241.910954324068,2870.295348035569,3616.430720856884,377.8398437397366,2166.927291425337,3665.41708502346,742.8129381353626,3233.742066073817,1878.3127691823483,821.6900643493004,3047.4564639613363,4037.2391024995,2749.919236921714,2333.3983738564903,3568.129486311876,2869.187323698656,4109.823602134667,2973.510672613595,2329.3901563264367,1440.8428219890448,1116.4701668455473,3078.8668367741725,2071.2913477405195,511.8945337057137,2984.499554679656,949.792034386167,2688.8805869838147,2058.620533495325,1056.0256570231754,2732.104717189084,3218.4134671611027,2056.566206388716,3218.4134671611027,2892.6938002848847,1484.1089639969464,4058.106318501239,2699.1364404913184,3100.279683546419,1514.3090410440673,1056.5055266808804,3814.4089701323737,2409.0926389543947,-171.58051666507936,2120.778558856695
1247.5000740900489,2926.592943904114,3544.1554546126995,447.7703051822689,2448.465979723041,3622.40582201582,687.1334430863401,3257.3405041434858,2018.179912041148,838.8198128872064,3076.506429309634,4128.49738943447,2724.18418373212,2290.132315798242,3537.7157729567016,2856.89521881085,4126.531030957607,2783.908036953253,2336.8676406771965,1413.4992347657435,1129.421864653656,3004.8879511979594,2097.728384652057,550.7042405400628,3006.322589432015,1183.2656933304436,2678.474331802503,2056.9864276651,1209.878843290724,2697.726959964544,3268.6315769012394,2118.919748216553,3268.6315769012394,2890.60765179921,2046.549131942225,4042.679473868856,2737.726655509981,3167.682864551465,1424.8464497158527,1018.4854192537118,3800.209151627496,2048.599011643727,-93.80538536424092,1916.447316417665
1242.8168859362231,2988.188107365283,3507.8786987886547,500.16579892609707,2673.6803948845554,3519.9527157513303,630.2654252170312,3274.482282043677,2139.26482604933,835.8101180434203,3107.544337804341,4161.028735743086,2705.622424069076,2258.419916001184,3524.1945507565915,2845.77997589303,4142.333588996187,2608.589199732042,2294.799159923148,1361.5226725491607,1147.5491065221067,2918.5695883290487,2129.83243964316,698.9840799303333,3034.43173400978,1520.4889553770113,2671.9388191658536,2064.4929399153853,1376.8395652307868,2666.848591078835,3322.050723679816,2155.157452355355,3322.050723679816,2889.096562182396,2660.517512121139,4050.771124668147,2770.364572810298,3240.4486741517057,1330.2463107765773,994.9218535637256,3786.4201505012047,1771.165148220859,-52.65056732075209,1695.1304335124803
1230.977786244785,3049.384199779402,3516.3775292773225,537.4862236594654,2834.5326882759214,3354.3641932396185,573.1071296492432,3284.974842052687,2237.0225683302306,814.9137694768992,3140.6580873205044,4135.464873434446,2692.058204643082,2190.5132385340426,3538.0599595324275,2836.494182360825,4156.942314530791,2458.82691636596,2204.3707138473246,1290.431270839439,1161.097166820622,2826.036314996366,2156.281985845901,881.359557335277,3068.408092289149,1949.2763905853687,2668.6294461323587,2079.494501364246,1527.6455491502045,2640.312141015449,3379.2159644795283,2168.70441968838,3379.2159644795283,2887.350711687426,3262.462687815497,4068.425016935603,2796.2122801431065,3317.46148783834,1239.742258072955,980.7847091292596,3776.774791550304,1594.112338143226,-61.22679161077804,1483.380240969865
1215.3363892989312,3106.7151607435053,3573.094893522382,564.6361551445766,2930.238544557716,3136.939016549168,519.2083948595405,3290.5167615750324,2308.96271148966,781.5121079267458,3177.676055819756,4052.552957695768,2681.4650100571994,2183.7534832802007,3582.898458655943,2829.4851158521565,4170.302612589665,2336.337270170194,2074.799417805729,1210.29785527265,1163.533018699412,2730.865131683703,2167.455704510349,1136.222097170449,3107.390723120885,2442.2300737944465,2667.880643524474,2099.7496698059213,1630.487585789133,2618.341833866779,3439.8464633171707,2168.1488200434947,3439.8464633171707,2885.331149982243,3786.487947003287,4084.0408110237786,2815.536505099094,3391.2547849127272,1163.4578240523488,973.7171758980572,3772.919819359454,1508.3835292760095,-114.42349256513351,1302.0434908753057
1198.6575497738563,3159.555243652317,3676.8094166005785,587.0075737090251,2963.5473524284994,2889.5997968975435,476.4019446395796,3293.618868319618,2247.9016544670926,741.732204744306,3227.1237519149595,3912.5038040247887,2672.397403065456,2215.385523864399,3653.068189652591,2824.9876061186824,4182.516767805942,2235.7969346682808,1919.3931914628515,1133.8756204263173,1152.436798579327,2636.202416766843,2160.573078313292,1438.9694669989683,3150.4728767962865,2959.1013174046875,2669.206987486711,2123.0718394765254,1658.751572653185,2600.7036422428346,3499.6642543747816,2164.3961026323423,3499.6642543747816,2883.47842569532,4178.118607850634,4090.4285920858015,2830.2161251298426,3388.364196039982,1109.2104696954057,973.3311412540212,3774.7775227160896,1487.7480579544729,-193.9086885354768,1163.0197244798244
1182.5986991624154,3209.6707369273986,3821.7523357224736,608.9969460142079,2937.943341088317,2638.575187354061,455.47222479641937,3296.7191984675246,2229.715675998662,700.7630992532429,3305.6850730004603,3718.205287630704,2664.1347054230614,2298.0434588175867,3733.040060710943,2823.107923057661,4193.754592563957,2149.521416662446,1752.383621134033,1072.7867536793144,1132.0153685522478,2545.877844323328,2141.54042454262,1755.2015764453065,3196.955913368567,3449.7570583282863,2672.3351186422733,2147.845013119721,1600.1836707642397,2586.9388683459224,3547.603020934642,2167.7853600547537,3547.603020934642,2882.4227251295088,4402.887288176762,4085.1031174960335,2842.85234292764,3391.212902062696,1080.1672572590865,979.7201319705416,3781.169411339332,1500.6568341203606,-276.91201806152776,1069.4622353267864
1167.6027800493423,3260.177215366308,3996.8141208450656,633.2450468264715,2857.3605789475832,2408.5429167841567,466.6522003087166,3301.611277623714,2108.8267948612875,661.9607182219843,3428.412997326873,3478.275746648938,2656.583375831762,2421.854507596777,3795.937746265144,2823.839948075856,4198.483955996551,2071.2253266279004,1587.0983774453225,1034.7425061389847,1119.8408845534022,2463.672196310356,2122.664098189141,2051.2281628824435,3246.290216952959,3864.034508343555,2676.7240930037715,2173.384370105628,1464.174979325448,2576.533838710085,3567.954969005923,2186.167808046663,3567.954969005923,2882.7810044770195,4450.632617731826,4069.33500176929,2855.950435997377,3327.545467147348,1074.3919735340717,992.2219558216892,3790.4791856227966,1519.9869014748451,-343.9760410856184,1018.522603015448
1153.2036738595366,3314.1866613859784,4184.750363442997,660.5687550168022,2727.9550900156537,2218.351440808337,516.6530288407496,3309.218359044735,1866.2668403432992,627.416510144041,3595.593243523015,3204.3806202803844,2650.034374601893,2557.2511025081494,3806.893808327278,2827.05840871079,4170.606341684807,1997.615738819291,1434.9923540619952,1023.993644182086,1218.5606026907749,2392.125713597563,2118.0932953817105,2300.608318817932,3297.721157855958,4165.410202539377,2680.217996031211,2199.941941597014,1281.1143803348768,2569.0056750165045,3546.2493491295463,2223.910549781565,3546.2493491295463,2885.009396030345,4325.895781647841,4046.603191996678,2871.414800643101,3193.590342247501,1086.045116337073,1009.0950018730751,3801.190554870053,1528.53036177081,-383.1839330178391,1005.0713008075772
1138.5179180212392,3373.199062134416,4363.958338206092,691.3863518117673,2560.263186848945,2078.844437843806,607.4398657914924,3319.715460664227,1532.0624815605129,601.2422722429446,3789.506728801574,2901.930779074026,2644.929253357227,2670.1871363175646,3736.788860717808,2832.652899773792,4063.015017957011,1927.756327043688,1304.9613953693988,1043.6517255748292,1303.6402476145995,2332.349722516135,2139.47439132784,2487.0401444494964,3350.5700533509307,4339.409830724924,2678.102116266557,2228.3167446064285,1092.2872566127985,2563.957661138845,3474.339532903855,2281.639508948626,3474.339532903855,2889.3041953065185,4092.902865176079,4021.0235131148943,2890.372215626181,3004.693077636204,1107.424181451488,1028.6074960402902,3812.216317228347,1519.9510952032856,-388.325781953537,1024.730419883118
1122.6341483078754,3435.6902736811376,4513.567345859011,730.1029842772832,2370.395186854292,1992.8673555844912,736.7656553215918,3332.8374006683293,1169.9827250355384,593.7901958744235,3982.0093934999895,2568.634495207579,2641.7307087821423,2737.009681535002,3586.744155102127,2840.68509371833,3839.140359495656,1860.5374681795988,1202.866033331364,1096.782195275463,1439.0040514656737,2284.6674045622035,2193.031732695367,2605.115867706363,3405.163846848104,4390.890448021588,2664.81183458441,2259.38210866809,1120.7429986271409,2561.145710810323,3353.2159353272973,2356.502573031485,3353.2159353272973,2895.6298650545345,3824.762647073459,3996.1429361544974,2913.1642753485467,2790.709954246137,1130.9730535913377,1050.4176356914086,3823.0109634500914,1495.736966517817,-349.449776087341,1075.4000928448995
1104.7860646597298,3496.8406287307744,4619.09502285249,789.7641719042085,2179.4161258537856,1956.4782697292392,899.8362089195866,3348.1328007084785,847.4462388999525,622.0518174662311,4145.473296200137,2209.186039853129,2640.843235937359,2751.7183760466746,3377.5394899161383,2851.3947752062286,3504.2462289161904,1792.193170139421,1131.254871977818,1185.565761236457,1596.1883291934098,2249.210046161603,2278.2985617744703,2659.947139757567,3462.9827020787307,4332.284542184894,2637.999430443777,2293.8164195878367,998.2051630523404,2560.53003271115,3193.2946360515034,2442.5426059473507,3193.2946360515034,2903.849903445701,3605.684590971535,3974.27123309462,2939.44337825242,2586.4666842985707,1150.7289049804635,1075.366439280315,3833.5127031524016,1460.1321535128702,-242.67416019117212,1156.78764954371
1084.4688681294726,3550.0339945152846,4675.615447365646,890.4603433834995,2010.540046715122,1960.5485621038088,1090.9874645952682,3365.1903847669487,613.1716434812824,704.773646231024,4260.694828742774,1846.6490460337748,2642.539364905936,2724.5169030636453,3143.4472527871085,2865.101813536786,3104.5606651291027,1716.2578596925189,1089.5331309516862,1309.4473097994571,1743.0704300459531,2225.745215420104,2387.319413877672,2665.590141899708,3525.7668939177925,4173.548207267135,2601.920591444337,2332.0672401919487,922.971700418173,2562.25776186986,3011.6859768849213,2531.4199244888905,3011.6859768849213,2913.806503603781,3495.90515088307,3956.3343520725416,2968.0644848940506,2421.705271424152,1163.0430457068292,1103.8581908960552,3843.9862088635086,1415.9172795239535,-30.5527530206914,1268.3971295661172
1061.5877472552934,3589.394995224868,4597.754391652119,1050.244297593795,1884.8626525033897,1993.109995525725,1304.0482673047916,3383.903333176263,487.11194382179497,855.4031668097421,4319.242683025095,1515.6613169995435,2646.945212672914,2675.5823214570546,2918.9083471178483,2882.09996254765,2704.1011157255825,1626.2488176669224,1074.9426536582075,1463.0962643107755,1857.473126761878,2213.001899258654,2502.512412942396,2641.540986108729,3594.610116914373,3922.614585095815,2567.3827058490647,2374.430800995678,895.8220516654467,2566.5578843739686,2827.322555824172,2614.182181448351,2827.322555824172,2925.307167551285,3511.404946370623,3942.112373271261,2996.1398497986465,2313.430587801518,1166.587557189244,1134.8541992619837,3854.837453360273,1363.4006183342417,325.0459946367664,1407.7507285682182
1036.4397235857225,3611.834815143357,4568.351463291161,1274.7760889258811,1816.709979039992,2042.4674967924493,1531.4865327625537,3404.502430792531,461.5831393611843,1076.077908144629,4321.08022446705,1247.7762508377143,2654.070047964952,2627.8320381898816,2728.3781345114094,2902.528982780754,2359.897329307913,1518.97243102947,1084.0336246769932,1635.74901021468,1932.693200858184,2208.785393077844,2596.9001639040343,2607.550730314293,3669.482348293039,3592.744650006959,2547.9588170949933,2421.0616513686496,920.5352756680564,2573.5962445352707,2656.404112704614,2683.659937455142,2656.404112704614,2938.1149665429216,3627.371142466384,3930.67693049718,3026.1445661666125,2262.327803099374,1161.85274537321,1166.4328051273685,3745.6589007213306,1302.6107603387727,842.1014193897847,1569.1743103492947
1009.4850186229088,3617.761504860924,4493.0325463352565,1552.3107509360595,1809.764511994763,2099.972838974794,1764.3866057037983,3427.259802394,509.7769445583747,1354.6878268371113,4270.32961668602,1061.3877121477474,2663.807262423609,2600.413410644452,2582.5212548385425,2893.8456512160624,2106.0179071929174,1396.1506570559648,1113.567758161847,1813.0265294113049,1976.3297233054168,2289.2564895773467,2642.2757749508187,2578.82225315168,3748.749177198685,3207.173066693832,2554.8253149285083,2471.874331971293,994.7278164247784,2583.4155956333666,2510.0729342988084,2736.181812457593,2510.0729342988084,2952.003175524034,3796.1767919562526,3832.306734776224,3018.7754009589057,2254.840493001878,1150.9234392949652,1197.2335677838578,3759.4109141173,1235.2992502161155,1497.2852524452292,1742.3931813343702
981.1184994122364,3610.430641322436,4375.290139295035,1856.00723033744,1855.9657457635813,2161.050823676757,1994.1762178194165,3452.2605714599804,597.0590191105946,1666.1969319006598,4172.51353663327,958.609563190257,2675.9370338368444,2604.6807250266693,2480.2160975167167,2922.281973831557,1948.939270265506,1264.1427135102704,1159.9898574057877,2003.981369016125,2004.7882097758363,2297.1767302426365,2620.5865324226284,2563.8173886545223,3828.250056125402,2796.8582084640284,2593.2108922260804,2526.55160044084,1106.6844896836255,2596.005274157089,2394.149811346781,2771.9797897774924,2394.149811346781,2966.8360326312013,3967.287169909888,3825.482037283477,2959.077578472132,2270.319942924845,1138.3241828664372,1227.7118286154696,3774.6483322235526,1109.1230261270116,2220.667574163346,1912.250019566296
951.5546167880236,3593.782391701814,4232.178028802877,2151.047395401023,1938.2931818991472,2223.8977528370847,2214.6444821932355,3479.4891390260145,691.0685668615351,1977.666906267165,4034.6202807963673,927.366157197196,2690.1895141674186,2643.620032941707,2413.47946339026,2954.874505666766,1871.9539787971337,1132.8344950947458,1218.0646577358325,2154.183750121032,2036.4127357258644,2306.319061373136,2529.2442142240825,2564.7690075584346,3900.605155727972,2393.994859359187,2661.521629245301,2584.744530430247,1240.0976667635416,2611.391923462262,2310.164990830208,2794.491345833018,2310.164990830208,2982.5895055870906,4101.958024134152,3818.7780555919726,2833.6869251805388,2288.932317266564,1131.725538463362,1260.5688431306885,3791.328074924796,1095.162356197973,2915.810440224628,2061.202739488907
920.882742373627,3568.792912479962,4091.2059822542415,2402.5192527828267,2036.0263245351869,2287.2247824054257,2422.3969402271505,3508.964245345782,768.269894659365,2255.1900792747783,3866.290453328952,946.6130324388072,2706.329852817719,2713.24314316031,2372.280641463813,2993.285655235174,1844.8356486680905,1013.7090178334806,1280.2260777924498,2271.0124282895777,2085.2160879574003,2314.0742235532434,2378.8292561989388,2578.9973153306587,3956.663967128005,2025.691162918449,2752.3471225379863,2627.8263894146926,1379.6515374695302,2629.6721478583463,2256.661269223412,2808.986166354743,2256.661269223412,2999.296925924657,4180.161109586124,3811.888046577633,2655.207089831375,2295.955908074852,1140.641779942805,1300.6831172753125,3809.301212268326,1213.2443082429147,3492.413644256525,2173.632226529644
889.2320287277712,3530.877223572837,3980.413339830716,2581.280633541982,2130.231053361685,2348.8519747531627,2614.902586944557,3540.692348299708,816.4392288898125,2470.859658179454,3679.5432433475225,992.6142438040116,2724.185515490262,2804.169884750374,2347.41452721832,3039.490337233085,1835.038045005236,916.8068687107811,1337.0052489953025,2348.3118114200147,2156.428989695077,2317.365438143044,2187.318932941671,2600.0509932055406,3989.744194202656,1709.3063777802845,2853.4850137745148,2673.0569061577085,1513.7838203832453,2650.975450897035,2229.41265953351,2821.0082472934323,2229.41265953351,3016.9907993483384,4200.382038449069,3804.851325132605,2457.906519659469,2282.216405297293,1173.7889595579122,1354.6619515621585,3828.367042219653,1524.3652769011585,3891.9991033854208,2239.376750730604
856.8051371729036,3472.1502856704965,3919.691601417644,2667.3316950753256,2207.8250193745976,2405.256947857292,2787.164211616581,3574.6857914446773,833.7651898223792,2608.208049611227,3486.424710954476,1044.4185609785343,2743.629169566131,2903.399420403387,2331.3912320199697,3094.409205156127,1816.9707420952973,848.1386791846057,1378.2050606993196,2384.10431245508,2245.488888729927,2312.146157491024,1974.5088388708984,2619.4547184213643,3999.753590719848,1449.2947651047832,2947.3434267432604,2680.257860901981,1634.2112924172902,2675.386634655868,2221.0512268436214,2835.1200662426154,2221.0512268436214,3035.7051380372905,4174.667755473332,3797.9302685673306,2282.384082331703,2243.498789667928,1236.5136902538345,1429.5445720045727,3848.3212486330776,2019.6259395721083,4098.465186802094,2254.645924915055
823.7535225298027,3387.580403928302,3915.179506930416,2651.524751213138,2263.3298396712094,2448.4653847436407,2930.0808120224624,3611.191047225675,825.8050677453423,2664.604981239787,3296.536080392507,1087.2884566784585,2764.581819900486,2996.762989972104,2318.787751388525,3156.5425861569765,1777.1324909866314,809.3165223714445,1395.055049679002,2380.6223777782534,2341.129792035368,2294.3692737655592,1758.0518568545956,2629.222320739706,3993.483250945541,1280.245731449265,3011.959296901773,2628.2672212375714,1734.3740533538066,2702.8854368503844,2221.9447482273345,2854.2348380540625,2221.9447482273345,3055.521026757407,4121.749625441605,3790.014184842833,2161.440519416404,2180.8994967508725,1328.555599005994,1531.2722583498603,3868.988447262237,2622.001275661558,4126.148915883594,2220.6049822672708
790.1050476122057,3277.8395225595414,3955.553983605104,2536.1009827359394,2298.490577124316,2458.5507930909444,3032.769841300244,3650.75845131488,801.7002292434058,2649.5206901079696,3116.3278237960694,1113.6902587443817,2787.030955389797,3071.75155554486,2306.95791799521,3221.637472838966,1714.4859547759345,798.6987141310731,1382.658755703514,2344.126802321537,2430.6217455659903,2262.787715818256,1551.1984268454678,2624.048153456077,3980.107741055954,1100.9220817245866,3027.7558009163336,2516.111037785752,1809.573821572152,2733.313214979404,2222.617227691063,2879.510249867818,2222.617227691063,3076.560272769248,4060.619260741396,3774.24232085638,2112.2849818675704,2101.171216411913,1443.1635293810823,1663.923481492661,3889.824214474064,3224.4363084417746,3982.189984377,2141.6715761297
755.8429380966575,3144.79923966957,4012.761502590364,2333.9264328165336,2320.558680751252,2405.37928097227,3087.4284526497763,3694.037074590389,770.8025827540273,2579.515903031108,2949.610940971389,1122.39537494118,2811.02593276699,3119.881918678632,2296.132133552509,3283.378257361729,1636.9260801740231,812.4192958224485,1341.3338459395816,2284.231583440094,2504.271789761923,2221.52124834029,1362.1933084672582,2602.435513622225,3963.993790741312,944.6206657918448,2985.464758246565,2363.98428350541,1859.5235521331683,2766.420117232979,2216.112893684203,2910.6308789826007,2216.112893684203,3098.938249048585,4006.030816706645,3735.962674216509,2135.371040395969,2015.505808180052,1568.8029892850825,1829.0406882224788,3908.144021789325,3730.434626897615,3649.842951695175,2024.9124149684865
