0,1,2,3,4,5,6,7,8,9,10,11,12,13,14,15,16,17,18,19,20,21,22,23,24,25,26,27,28,29,30,31,32,33,34,35,36,37,38,39
2672.722502882835,2953.9414802152414,2944.382473161955,2873.821891098424,1516.3585999274082,2170.4656701972526,3998.3573338622473,1038.2844115761395,801.0736449648023,932.3350444677794,1334.5093275117174,2096.47375053173,474.136744110984,1120.7053319552035,2565.6767010192843,1545.2096356625586,1058.720031768156,2786.918993581143,2673.614470447792,2180.4662809628544,2559.427089120415,2163.3673558554647,2295.786816491854,603.5372640996143,2467.5810351994483,1245.0902480723005,2414.067457613566,3698.246190761435,3267.3791465970144,1965.3210915806355,2278.137840004384,1430.8103085523862,2601.8347370338247,3091.361100725798,2507.697656312912,2507.697656312912,1003.4148127059104,492.89221608049934,2595.023296537648,1966.7775081998084
2713.328962409788,3000.987772276849,2777.4027968382425,2915.1071647585604,1538.3080510094435,2173.423699380836,4002.314539716157,1051.281487391704,756.2595474867517,937.4649280451144,1367.7016350505428,2116.740949581692,660.2282508813939,1091.2504556551362,2540.525622141304,1654.991038951145,1036.5742817967885,2796.580541076149,2688.6724274401363,2191.8679681607555,2579.5275487355966,2110.032918284528,2299.8884173335136,617.6237011175278,2482.113519652902,1442.6953569982174,2391.094870919759,3643.7277788464553,3357.557227562644,2173.051977756453,2287.442679327917,1509.267973587469,2606.887314943021,3149.967438701583,2566.164884461146,2566.164884461146,1121.8272547588683,528.4734748497988,2673.881430937615,2247.683139152633
2742.303409085556,3013.769050780298,2644.6980760299,2959.022941994488,1565.3761759331553,2180.351095011226,3996.328583941031,1063.8977946671998,712.2629744745077,941.093268657666,1396.429948204871,2126.4909849235555,965.7960616856508,1059.8488273149887,2515.077808154091,1770.2427109093487,1012.4225638713684,2812.435648911096,2706.276907832711,2205.2115306822034,2601.391721100299,2105.602481240657,2306.4732568472227,634.3924654391201,2503.7050231411467,1626.480561001021,2368.946770922854,3540.0030646247296,3454.612389946894,2359.2577047407244,2298.954502720577,1587.7154685582914,2614.818939526764,3213.9293049768094,2624.9240899248125,2624.9240899248125,1247.9410127464782,562.8981784059606,2746.8384101507454,2482.268427627881
2753.4267675589213,2980.8528245503267,2549.841635502316,3001.892449184405,1597.7765318947354,2190.5870119394795,3985.023056765485,1075.7367636605766,672.7405063908923,944.4109147058056,1416.2021694294704,2082.7345978722083,1340.337054496325,1026.9901420789445,2489.787558633708,1894.271931509198,986.5602625219558,2834.47986765232,2726.784945613045,2220.311936287915,2625.407620345811,2134.4588102184484,2315.7072706505305,657.4834107353224,2534.591739221252,1795.4424744276505,2347.361226924939,3369.040315785831,3556.4257499125188,2532.2178278878964,2312.785572751419,1659.4385314284937,2617.520521933092,3283.4162082145303,2684.418827794389,2684.418827794389,1381.031328154084,593.1285011695213,2807.6974979522174,2649.779531460291
2744.9617410673054,2898.6272744428925,2492.7361514895647,3041.3597947067856,1632.643773245892,2203.586652664809,3972.485481769538,1086.6261559702057,697.2797572669426,947.877469962009,1425.4381079561845,1958.7565460762555,1713.7855840851244,993.1022668394075,2465.4682562278103,2025.130878182504,959.319307149058,2861.034159583408,2750.5520128733165,2237.2062553486667,2651.87701823648,2177.9178148541096,2327.8028541148137,690.0183459697105,2574.459845383866,1952.8477895687067,2326.6909405396764,3127.955335975162,3658.551937909476,2695.394346228288,2329.07749276408,1721.0038577168464,2611.488225565009,3358.403196196633,2746.058142748747,2746.058142748747,1516.8919760776098,620.7694020292308,2850.1503169713937,2748.8755502953213
2719.409006426994,2771.2912966438244,2471.286344052085,3076.788286294499,1667.055004674458,2219.001086073569,3961.590171071175,1097.2766746871362,692.6679784616558,951.3167923576116,1424.8753219550545,1757.1763470476376,2023.267921496613,958.3581081507456,2443.009852635571,2157.754608030757,931.0402980633908,2889.626569289016,2777.6821188216272,2256.228831096205,2680.960124318228,2218.2124126972844,2342.9126588975737,734.376807271115,2620.464415038972,2105.48812706045,2307.6076516556022,2829.5279877002567,3754.0990897424176,2843.514011879992,2347.949298828427,1771.883369139741,2597.1795944100977,3438.888003121684,2809.530714391239,2809.530714391239,1647.8809252696628,651.6494570265993,2868.524476899905,2792.855686589947
2682.086809587981,2608.511399163486,2483.78647268349,3109.1256919847688,1700.5064964276198,2236.6013979353943,3953.594891025499,1109.540524025197,711.082153313549,954.15073921168,1416.5999689685898,1509.7271035939443,2230.4466248783874,922.644129374224,2423.1207705499314,2286.879589524328,902.0990444140762,2917.925605807644,2808.0401819574536,2278.040652717267,2712.704767800182,2240.698091900725,2360.982588003298,793.8598397744959,2668.6558903649493,2260.968521617662,2290.775546114757,2496.280013507934,3835.411475549313,2964.3797066848983,2369.426117645751,1813.4425742338133,2577.657539818269,3525.11890867,2871.191838266135,2871.191838266135,1764.2071094878163,693.1703777974947,2859.83680252724,2801.6421127847584
2639.255881608255,2423.183352645393,2529.005494171792,3140.220757862528,1735.8354944877683,2307.869913053679,3947.6672976431128,1125.499508097065,749.8507532141678,955.6858717575428,1403.062578859022,1261.251800325242,2326.7885837370445,885.675054493513,2405.787630168224,2408.785299629524,872.8435159054391,2944.336309816608,2841.5542821027693,2303.3411653879853,2747.0925911373647,2235.329643839512,2381.7302139876447,877.8485507814423,2715.684669744577,2421.8619186153464,2276.625813375741,2152.3917839394644,3896.654501061988,3045.3471757597163,2393.384357264332,1847.848646305004,2556.976224468017,3617.455727258369,2925.049581580727,2925.049581580727,1856.0643188250065,750.7614051780315,2825.598984891779,2793.8542992090984
2596.50632460439,2230.5105695149846,2602.365238740427,3172.0012391716546,1778.3843255164325,2324.703381541736,3940.6603603453286,1146.2046679155778,801.4445347163735,955.3329314293156,1386.3661998073665,1052.4102166126222,2328.984073566794,847.1703048944771,2389.1155081196307,2521.6256357368075,843.4227731318263,2968.271537460343,2878.472967155082,2334.682312952584,2784.074121909204,2198.1191821738403,2404.769060728336,1002.411282113564,2759.925816210763,2580.7912159957154,2265.317819899236,1817.2195162398373,3935.633764174304,3079.4880925803545,2419.5552226027808,1877.287561251228,2538.788344183498,3715.587511226346,2965.4541882387784,2965.4541882387784,1916.019544856614,826.1380133737196,2772.054480739143,2781.7908054092586
2557.876651566311,2047.9632620121893,2693.1169094032493,3206.0143111141447,1833.9802826266216,2343.8052312640298,3927.735475663018,1171.1912917209147,856.6938265909198,952.6749069771035,1367.891474934656,908.3025432660204,2268.717959065179,806.9612157737884,2368.8485097689027,2625.227985407919,813.6816170938544,2990.160829992409,2919.419044378887,2382.202857570838,2823.8680049953928,2131.135503078939,2429.762288889065,1179.4522831979225,2801.603068270398,2721.853317066822,2256.8343970586857,1502.786554466276,3954.1184432095306,3067.8883533176213,2447.645809354836,1903.489747162057,2525.4921885755743,3817.3462524234974,2989.6608831904823,2989.6608831904823,1941.3590583670973,917.7427782666592,2709.0535370549715,2770.4369663461894
2525.680137877632,1894.5411595887424,2786.564014498228,3243.383447081987,1906.8939466474392,2365.372558794085,3903.204340842847,1198.776711253613,908.2437715442672,947.4802390390984,1348.2137814839482,834.9362619701544,2181.3178060415544,765.0128941371859,2340.5243848316336,2720.5410533373,783.2526192793578,3011.16783342738,2965.301331189521,2464.3309325629707,2867.703574028896,2040.6151424589664,2456.51856371437,1405.2984324841764,2842.2622038004474,2827.5377249069184,2251.055652323764,1215.663830857231,3956.8960388591886,3017.869338621957,2477.5091229149857,1927.4853754480423,2518.0258164463426,3917.8843607526,2998.9703902041933,2998.9703902041933,1936.2677598128687,1022.0733444533868,2648.0953160503223,2759.387219381185
2500.6472152423376,1788.3404628884816,2868.805730723715,3284.9564439254814,1999.1339600327813,2389.5138414282283,3860.840811964148,1226.7192246929878,953.1552352819828,939.749751745178,1327.255624874569,822.1453667593998,2096.799996635157,721.4339771120544,2303.471759656232,2807.9781322896506,751.7588421861258,3032.743511082357,3017.1912742294016,2596.2019442413903,2917.8576283988136,1934.7350719407343,2485.043339353074,1660.3737575112284,2884.25552098023,2885.8650586547365,2247.8174497001,961.8067195854272,3950.1797319424977,2939.8946562978226,2509.1970880704475,1949.5688091693223,2516.174913994388,4010.1561560472624,3003.6742492504577,3003.6742492504577,1913.1661426522392,1134.8898848813378,2600.00763573528,2745.766698681099
2482.229788044572,1743.112380066049,2930.123048677329,3331.4013180162046,2110.969704039951,2416.2510558062827,3794.378178912757,1252.8976591786611,994.3782176511502,929.6863668075152,1304.5492733936148,850.0667422375923,2034.86608437569,676.4704038490504,2263.440817172612,2885.324227573664,719.0004466848966,3056.29595250828,3076.1500693820835,2777.476414054073,2976.052145412052,1821.5781745634365,2515.567231059754,1916.4479632508585,2930.244005998001,2894.201698095152,2247.001956592565,750.8936436433787,3940.003700983003,2845.855324918384,2542.823935819522,1969.4335737544784,2519.083154272338,4086.917661195972,2998.0213205279115,2998.0213205279115,1890.759742456199,1251.6151076549097,2573.0425494138394,2726.7582812977707
2469.1204959814218,1765.4056284989722,2965.8562385824503,3383.1210194067767,2240.211269850144,2445.5153760928424,3698.703175011382,1275.7594832226252,1040.196774951221,917.5755309285368,1279.4817920057098,896.2928566582636,2003.7967473957424,630.4570054004275,2231.13564530129,2947.492469172046,685.0612565247134,3083.02856233728,3142.909393533861,2991.9065813329885,3041.8496609536223,1707.2540586299046,2548.5268830304576,2144.587021810657,2982.504289096686,2859.176440901725,2248.5831580207414,596.597434717959,3931.049804405782,2748.0331453016142,2578.379020828153,1986.433179728047,2525.68949725847,4143.146039445532,2993.247324539051,2993.247324539051,1887.976970068268,1367.3598454717671,2571.891641260256,2701.0849075866126
2459.8195912446954,1853.5860735755773,2975.4571001515683,3440.1186884889853,2379.884935923743,2477.1643508212464,3571.442266495021,1294.47847514225,1100.886011038261,903.71198975297,1251.4731281064371,941.6121417857512,2002.34117616894,583.7431484383728,2216.943942859888,2988.7951076892605,650.2900017377408,3113.787733640612,3217.5857191350738,3215.5877012287274,3112.8254210638515,1595.500630655955,2584.414454738996,2321.935957524104,3042.480762651542,2793.721643946272,2252.5925080309244,511.53913060851255,3926.093309837871,2657.2210173608137,2615.695095251327,1999.8798236388616,2535.0131764812068,4177.5063282228,2992.9957827992853,2992.9957827992853,1917.97775926298,1477.4983990811552,2597.587118679809,2669.328843136676
2453.0402910478124,1998.666767719421,2960.5776442626047,3501.970825543838,2518.086937549009,2510.953101061658,3415.1329214146604,1308.9156425636668,1184.025748029317,888.0798253128296,1220.0956930268394,973.2995188851336,2023.242924430756,537.1594850500815,2225.706373772768,3005.892804247896,616.0770258866239,3148.942929318231,3299.78151682326,3425.79909140918,3185.9609370893213,1489.6127746410432,2623.496908406676,2436.6427304576973,3110.9063249715173,2712.923180387393,2259.0697995529035,499.6136229435897,3926.032565663366,2580.7072546866284,2654.578413453455,2009.243493428852,2546.350973018576,4191.598063917139,2999.2804294955845,2999.2804294955845,1986.28097479249,1578.5308230768692,2648.218336084115,2633.4050873439087
2402.774651032483,2186.353196299224,2922.8948721143843,3567.9952056874963,2641.368221457968,2546.02562826368,3239.272870262359,1319.4821413235086,1291.2228353635587,869.5293218861216,1185.1642653342003,985.9268026523288,2057.029210539762,493.7521445107029,2255.1091877874405,2999.428307204053,587.6798578621951,3188.4796967264083,3388.904402424141,3605.86028068062,3258.8728935959016,1394.6865710742063,2665.705238679151,2489.4252246961923,3188.065388685802,2630.306105387491,2268.052844911556,551.7717143659424,3929.739635964641,2521.411507921115,2694.987137440517,2014.199216982644,2559.3624124381467,4186.111388662877,3012.6550624595966,3012.6550624595966,2092.0901496125225,1668.6463535988787,2720.057624653903,2595.85247022204
2393.997314814923,2401.004954366335,2862.694575289516,3637.627909815294,2738.732945829759,2579.571266908083,3059.6075699221465,1326.9169554057503,1417.9066825374048,845.6956177117625,1146.7737656722552,980.2391282075108,2095.337403930478,460.4170800213417,2297.669603612184,2973.814936292936,576.5618170226364,3232.2257207291136,3483.779390237615,3746.0742716435816,3330.3383695808648,1317.407974122313,2710.898380684277,2491.44650602043,3273.4936941721344,2555.5185741830583,2279.565143247022,648.4123222020833,3931.810333131438,2478.3444807237565,2737.133434722304,2014.596416822284,2573.990955527778,4156.823288721747,3032.385797686704,3032.385797686704,2229.099219200504,1747.9065579685166,2808.0552419164,2559.3245636105626
2386.411074908129,2630.473899528404,2779.3584244088065,3710.702722411198,2804.3999682919725,2606.088426280705,2893.222946458835,1331.9889069538503,1555.7587433742342,812.319941724219,1105.2406472383364,960.9409992155375,2133.487235943092,447.03550115008375,2344.1706843554907,2935.7638939326903,668.233951340771,3279.974183612101,3581.215385100576,3843.3355728991473,3400.329742378419,1263.5664304224267,2759.1853440699983,2459.927532823624,3364.7909401914258,2493.591249149741,2293.5629704290977,765.7140801538776,3918.579075618054,2447.866668912932,2781.396821522256,2010.437210560453,2590.3421735834045,4095.70030246784,3073.1972899009643,3073.1972899009643,2384.5686025315545,1817.899487009068,2905.826792913198,2526.121190075143
2380.138254884338,2866.997994298961,2673.724042313742,3787.015884298623,2839.336686086183,2619.098044812656,2752.1301096333736,1335.2471339623687,1696.0358219535024,777.2305774938682,1061.0173216463077,934.2497003728164,2171.0605781032814,463.094325007612,2386.853883213765,2892.3851371554656,735.2942790602237,3331.586025833962,3675.087420820404,3900.520567111976,3469.7697278685782,1235.6019538336843,2810.915047048841,2413.321453509455,3456.4561259699403,2445.421611699719,2309.93097570187,882.0394052243682,3868.257887881431,2425.220366124563,2828.1434936273376,2001.882875644367,2608.635807862423,3996.748219073894,3114.7460901957747,3114.7460901957747,2539.8467690985563,1880.8585801726983,3006.7204602396605,2497.744754190947
2375.5133569791924,3102.608754513584,2550.361371164164,3864.874649257388,2850.9480676635694,2614.632658474761,2639.8938423538784,1336.9240397426477,1833.5315416391493,712.1101497766533,1014.6338769930962,905.834948318042,2243.0117630049544,513.7138617553917,2421.3558704962043,2849.5934423099534,848.0711882041367,3387.1524384961253,3757.5885230062777,3925.1906880970646,3540.1119427285103,1231.6720502864998,2866.4169958956363,2367.3505283255563,3540.346934440885,2408.9818793124555,2328.61649896619,982.2108722306198,3759.235550529524,2405.9504193966072,2877.674294129084,1989.221867132976,2629.188677481975,3860.8782229471017,3191.787460912631,3191.787460912631,2674.6808742953435,1938.6552939512728,3105.8321543375805,2474.739696731649
2372.9767807250937,3324.360058294897,2417.914896490323,3939.809160604616,2850.104105274671,2594.276072696247,2552.9675635862563,1336.9519221700705,1970.879681508576,652.1036531701623,966.585588929334,879.5870698291853,2284.7237391149147,597.1991136189706,2446.9042925895005,2811.2906320254106,997.4519664322112,3446.9873868748045,3821.9694759083454,3927.5143121911287,3613.031394910436,1246.3160548915098,2925.947856311566,2332.617459971293,3607.341038203908,2380.849791657069,2349.7543889189656,1059.004266861469,3580.9233931129647,2386.87011966422,2930.3045232392915,1972.7525207407084,2652.314269076611,3696.288181566949,3319.9757818984453,3319.9757818984453,2773.2404726663067,1992.255872149195,3200.6780878739005,2456.851230701852
2372.9259006906223,3514.2122666032583,2287.589520979413,4005.232794756861,2846.634213877675,2565.712122792537,2484.5142307510623,1335.0792375295596,2117.6685056435126,627.8769604806041,917.1621140474742,857.2784013306407,2328.1103304211224,705.1999676184075,2465.3073064481778,2779.315210579479,1166.35645036223,3511.4954859444283,3864.823365773189,3917.959929909909,3690.353087203264,1272.0945447443437,2989.869005456136,2314.0031738034954,3647.2921731283855,2371.402694792371,2373.593103153101,1112.33224306274,3338.627470072505,2366.381202234997,2986.3624198363173,1952.6798242393309,2678.1212438231205,3515.4687492469748,3498.58141236372,3498.58141236372,2828.3715337981184,2042.2827782792149,3289.4686411481107,2443.334077271588
2375.626066089094,3653.210400715561,2170.553882978059,4054.8423727702416,2846.091175734588,2540.364915163357,2427.5749516507167,1331.0999210358154,2281.92409357527,657.7084807748349,866.3445900191107,838.7983947746311,2373.0608369061906,824.7058378640743,2479.67968766784,2753.785263872184,1335.901201734322,3581.0250982504085,3886.856920472557,3905.377398390941,3773.9318293068577,1301.45713311042,3058.631469995501,2311.5411329972103,3647.30733905404,2349.776959719627,2400.312228677368,1147.0014335828942,3050.7400972680307,2344.26476845134,3046.0878884655567,1929.116706370044,2652.845456547321,3331.444554079355,3710.318538249168,3710.318538249168,2842.3730578697696,2090.554724025899,3368.605741605292,2433.2849416746126
2381.231260132088,3726.8880569895055,2030.6818781878883,4084.926227012038,2849.3373717283234,2530.0359794280603,2376.3723834051734,1325.00412404375,2462.955004814673,737.9445985503623,813.8928407474689,822.7094116803655,2419.6872081604306,940.9216867693456,2493.368584871693,2733.6080667412007,1491.7760192156125,3655.058463824631,3892.220382425976,3895.7622442987786,3865.162591785717,1328.2466619178338,3132.677363794965,2322.086426224463,3593.099020695484,2328.8670580222465,2404.6130995643684,1169.9797615730697,2742.0969463074134,2321.246725240334,3109.6285635931845,1902.1199691476024,2673.735111316947,3154.822993978278,3929.9048448168833,3929.9048448168833,2824.73501387334,2141.387290947154,3431.9331460222493,2425.9259370548466
2389.8329765175454,3728.9734798341888,1960.8201086789727,4095.3820857559576,2854.1337921575378,2544.4752927622267,2326.512284877941,1316.8611200449136,2652.310936952017,848.3440662408398,759.5707257339384,807.0133223860687,2467.402837045154,1041.0366061361103,2509.1774038669864,2717.136476829306,1628.549155091577,3730.625627630759,3886.986668127291,3890.9312086447,3963.963023287959,1348.5015335816595,3212.488352466636,2341.112647763275,3474.694332821239,2308.2337821022534,2430.169742702888,1188.0480645229864,2436.834257447815,2298.546226059505,3177.065629831356,1871.690437943323,2696.2740341498925,2992.4575125727333,4132.750620952258,4132.750620952258,2788.403667515251,2201.3815230280243,3472.613212071942,2420.7725492686395
2401.4914134436667,3662.3247425432064,1914.0555325318287,4089.368495499106,2857.25149855148,2590.3130234539085,2274.753322977848,1306.6467636484358,2838.2508113455124,962.4894788976248,703.2854830260292,789.9109823480599,2514.6978084891666,1118.1586619235968,2528.9349216342607,2702.8219150338787,1750.1840353097527,3801.657182071824,3877.459287822393,3885.9411319614246,4055.524987869677,1360.5552650758875,3298.5953889420825,2364.229844127203,3291.591435223778,2288.234540021901,2457.8370176446524,1206.3069662846124,2152.3574966680967,2277.450636163117,3248.468984889784,1837.7834971402108,2720.132764874698,2848.1977862706863,4300.159731388538,4300.159731388538,2746.148237550291,2277.25657001991,3486.0484716408832,2417.6353386719275
2416.253632469814,3538.029150019004,1883.5189574716444,4072.066022212802,2856.191901066623,2671.09389962871,2218.1469616566205,1294.2665776408112,3007.844026930006,1057.2041641355108,645.1208486149421,770.2337232101208,2560.4664618466804,1173.2648453719935,2553.4706329667656,2689.6311953164386,1866.6568829880937,3860.580834585389,3868.827086353741,3867.724061451034,4161.010213926716,1364.6449532277093,3391.3909717507004,2388.185289793909,3053.781684651341,2269.6724837711376,2487.1789521324085,1227.5536735839069,1895.892603750192,2258.974954810428,3324.908878417892,1800.3754531615764,2745.33635966549,2724.9641774428824,4421.392773518986,4421.392773518986,2707.980764688556,2372.6165339636823,3471.760072604191,2416.512538267473
2434.0827098450136,3373.539376254129,1859.25800054192,4049.1638995365793,2850.074490005438,2787.535348251537,2153.0015422261795,1279.6181217050737,3147.308662452838,1118.211502492666,585.3619422396475,747.4925778571499,2605.9920440888395,1213.6503687052004,2582.8666183971154,2677.129408867276,1988.7952150650312,3901.098373133917,3864.42611027337,3819.9761322296017,4251.163479793303,1362.232318220693,3490.309213101072,2411.2463759418297,2779.4117262258856,2253.48232502492,2518.031027838232,1252.3697517039311,1665.1071762246509,2243.7058488045627,3410.4196189150725,1758.4388843419638,2772.347134758608,2626.076903536087,4494.041865998916,4494.041865998916,2679.889157384562,2485.709019262626,3433.525225352985,2417.5624354116303
2454.7436667347056,3189.454643569251,1830.8897623775188,4025.575342143824,2839.643517664459,2936.562261257357,2075.0435158496216,1281.3977485640885,3244.079846266658,1141.6552963681866,524.411799095212,721.7839834028091,2655.7155082993586,1248.933992546367,2616.676448918446,2665.348422710241,2123.783064720744,3920.291156658086,3865.6251791891136,3732.60759512555,4306.851085892843,1355.2397846371794,3592.2799079923293,2433.101554498147,2490.9448300997046,2240.451102998776,2550.619750951371,1279.698851875086,1453.9626943084031,2231.8308547687952,3511.2977943484093,1707.0900452227795,2801.96096226176,2554.4730403754406,4523.109441823596,4523.109441823596,2663.797441597016,2609.49191484694,3378.242144950116,2421.1507673239284
2477.838485225219,3005.312737508415,1790.1988415589692,4004.662652712369,2826.7219831506736,3109.736654010794,1980.9770937303208,1267.3566773583352,3290.633161391075,1132.3776945282625,462.58416809590767,693.6260895954845,2715.722637782701,1287.5417840729392,2654.089905420334,2654.6157508260458,2272.5222281260576,3919.211738686746,3872.183762658322,3607.269749683269,4305.794480546792,1345.4270889314107,3690.975030176424,2454.4923609907264,2210.651494341449,2231.0289773920504,2585.5936686631208,1307.616459811211,1261.1333709215287,2223.236540853832,3630.585875242179,1637.4261702498488,2835.0576046908213,2510.5205766691306,4518.788959910229,4518.788959910229,2658.4846611345533,2733.2267100076924,3314.174030606505,2427.7492465111186
2502.9995086202057,2811.8597242066216,1733.647106403494,3988.027684659687,2813.493245457777,3294.1154651093248,1870.139735079813,1258.6992426296752,3287.144388979527,1100.3636051375502,399.9903411099881,663.701526473885,2790.998847889391,1335.525300096513,2694.252223535298,2645.3911410044493,2429.088263424728,3902.1227358199294,3882.8569663782137,3454.9653191298785,4231.778835885749,1334.014651421425,3778.287700227052,2476.676511991821,1955.9090138851195,2225.345176895005,2623.975253302665,1334.0368370081785,1093.8829335066912,2217.5831383635914,3762.833368360994,1542.520006972225,2872.3200670896163,2490.11695212629,4493.506519378458,4493.506519378458,2660.9901706756323,2844.7291484509906,3249.10100024239,2437.715202438571
2530.0596685175747,2666.4372193489394,1664.0648518642,3975.757428528992,2801.867607241561,3475.9521466956694,1745.24050481269,1261.692969958079,3241.429414065856,1056.8644141531397,336.6758037647983,632.6852698943251,2883.6645537450886,1396.95334948625,2736.645892350788,2638.134991481797,2582.1914487681133,3874.983623797836,3895.413332623376,3289.6409285020563,4083.609960663136,1335.24682574011,3847.199055284093,2500.83123777051,1735.4858961502,2223.350463900955,2666.9743087879624,1357.2470866947351,964.4122589767614,2214.404129623738,3894.712482341082,1423.4768107651182,2914.075161970657,2484.3152656386246,4459.083318892234,4459.083318892234,2667.9744606240943,2933.352513480619,3188.910603769461,2451.143578454084
2559.492116183511,2554.3477883402884,1589.6829371086835,3966.931801572609,2793.1378408490964,3643.606929695218,1611.997165534248,1280.3522309260247,3166.624246142399,1011.3921440443742,272.8583862929256,601.9912234703097,2993.134937717624,1474.4368458400377,2781.222508854149,2633.187900391148,2718.2809415840425,3843.83425925824,3904.049314546985,3123.246188509259,3876.981339940949,1326.9830595489198,3894.0978587486215,2527.681003688376,1548.2728608518823,2224.8927052355884,2715.634258123353,1376.2237592065403,883.0162975380317,2213.273528790667,4010.382855817862,1289.3964535047,2960.342951066474,2480.4961852154483,4424.693398069974,4424.693398069974,2676.665626218408,2992.840413591628,3136.9525053804364,2467.8345475744745
2593.4030545259548,2477.0078048604832,1520.6228974960168,3960.1499552811047,2787.9485356136456,3787.8486282623744,1477.9218478879066,1314.0089932071314,3077.761303878857,970.1178045768283,208.9938264712225,576.2336786235205,3116.427985755322,1570.524227932353,2828.2259633176827,2630.648791826048,2825.4738239938924,3813.550684820741,3894.7855627375407,2964.318664255617,3638.991288708594,1322.6656917136916,3919.548115387204,2557.6110250497977,1385.3037873804187,2229.7271805071755,2770.6005454092,1390.6855836546708,853.1336159035534,2213.9401296958367,4097.3072905622985,1152.9989340723955,3011.0255626361736,2464.232013639192,4317.390701589733,4317.390701589733,2685.3056001515342,3022.60927813384,3094.0996543783235,2487.392327637456
2635.4791489183785,2429.8818542591766,1465.1091830546393,3952.6477574358087,2786.355505543519,3901.8376080514327,1350.765751915743,1357.0518881200032,2988.4466201865,935.5886075413282,145.64975219587086,565.2343727519631,3247.330731278262,1690.4371264558497,2877.964832596389,2630.418582066497,2897.4273809537103,3787.1972800320577,3845.697082737373,2818.417950249718,3399.8189384822026,1325.0412001373095,3927.6035584043248,2590.9338574547974,1234.2690927324406,2237.581705405679,2832.210512835807,1400.9109480683276,870.1092991047221,2216.360737608305,4149.73987504105,1025.7981330480343,3066.14620717234,2421.840924255412,4298.861924078157,4298.861924078157,2693.1951068958724,3027.155049357853,3059.3111236490577,2509.4002071569
2688.684350375979,2402.978647000177,1427.1772064888337,3936.499674548773,2787.91630401312,3982.225031413499,1237.132228430687,1400.731338120588,2908.543937214471,907.1809273319122,83.79291362546769,582.0251713494142,3376.414636023666,1823.7557825879312,2930.7659942549085,2632.447305299042,2936.3229718174216,3765.353421671743,3732.402050380298,2687.8671824280177,3185.7754340171978,1334.6559829251291,3924.271804523899,2627.7981551548014,1084.4308548615452,2248.2680714464323,2900.44111624519,1407.472123320367,922.9477729823402,2220.656066327781,4169.25145575053,914.88511456922,3126.0450297365087,2344.151018553128,4287.618858440103,4287.618858440103,2700.469474324972,3014.2115343214828,3030.4755248054344,2533.5280532699144
2753.008365095136,2383.3493800172982,1406.2624372120365,3896.091118850031,2792.053574739751,4030.08253298354,1141.7209898772037,1435.900138501277,2843.27806178992,881.7496127355157,26.226333632538623,675.9564213500589,3491.2800029776463,2008.434473416388,2987.61498930186,2636.9089520854363,2953.5541874849723,3744.231793299639,3529.90708341866,2570.3493874203573,3014.4868572293376,1349.4913665046342,3915.811590748264,2668.01401408412,930.757806779426,2261.7259980967992,2974.7226150183096,1453.4671905392038,997.4803157047468,2226.9836234493146,4162.979153976048,821.9627244834653,3191.345398202076,2230.085224064974,4281.431646112553,4281.431646112553,2707.7578174438577,2992.471846072707,3005.375460589984,2559.568305070193
2825.45892394408,2359.1100377556368,1398.2535656829302,3813.407836634253,2798.502157118891,4050.568885540727,1067.3191878272703,1455.7203551356129,2793.647034818615,854.8447402693248,-21.21300717078202,774.7111498653176,3573.934823890079,2219.406239867504,3051.5919826502954,2644.119190197602,2966.107259864742,3713.898071227787,3218.2865412842384,2458.122026323243,2891.825138074159,1365.9485626015285,3907.381237608474,2711.1528955948274,776.7691520696217,2277.96429129577,3054.249797340078,1457.517370114162,1079.6778499751165,2235.388466471121,4140.782947709586,744.279233691034,3262.696463443581,2087.3522139649285,4277.597504207216,4277.597504207216,2715.862645656124,2969.583667924373,2982.706580701477,2587.477452627413
2901.595697386637,2322.642320853676,1397.286488979545,3678.45099936176,2807.313182397348,4051.483280210301,1014.9366753437362,1458.0555638734122,2757.646684807852,822.7518681559666,-51.60653261802713,909.8203190027727,3601.114981432944,2438.3394854508647,3127.77571394634,2654.3124883642745,2988.59458690516,3660.135818326728,2801.6755778204006,2339.7547313638274,2811.79932871404,1380.1902339157054,3902.2973107256585,2756.671375963308,634.3263333076466,2290.122956824127,3138.545097898816,1459.3226152868506,1158.2784203824094,2245.7910030695684,4112.425697638015,676.6502044339882,3340.52254875359,1929.5039035414648,4273.773917931558,4273.773917931558,2725.513272257875,2950.891279849244,2962.7210614965697,2617.414666976781
2977.2799520023773,2271.125257143908,1397.5420133065268,3495.598225892896,2818.5376178630504,4041.3467971717137,983.6341771771496,1446.4586697476525,2731.722220910151,784.1231858424701,-61.68945146066221,1069.7561776903133,3553.92552244271,2642.5693440542013,3220.077209402777,2667.460020187722,3025.83298341017,3569.9848870860424,2320.100539844673,2204.5490209437726,2759.682048613682,1389.236926576507,3901.918580673167,2803.94070745125,519.2232917610004,2317.4548708539664,3227.6694881451863,1459.0043265336933,1226.235755661192,2258.1338536051403,4085.5263884686296,613.5822665391559,3424.662783485828,1771.550611404391,4268.438026447451,4268.438026447451,2737.214423306515,2939.0521587770863,2946.8946113021825,2649.72171700707
3049.938142416733,2205.02048181338,1394.5116232409046,3281.8990095615454,2832.04018029634,4027.6669310415937,970.4166037930374,1428.360305760371,2711.9575064187816,740.0496653462487,-54.97270400511729,1240.2086816988974,3428.354659668925,2812.8416014433183,3328.206840462115,2683.2631521708154,3071.035374011677,3436.848858850086,1837.3137842781248,2047.4842503901027,2716.301675703874,1391.5054773677648,3906.002804098499,2852.3660888877826,444.7734721088661,2354.440879421584,3321.6840752407606,1456.4793617373216,1280.8737443240393,2272.517453487502,4064.589353781787,550.6587521062322,3513.122263054697,1626.6798735381471,4260.343356285559,4260.343356285559,2751.232741159471,2934.3762586978355,2936.878658512352,2684.8035486655394
3119.0199489289216,2126.0168262598168,1385.5392466466465,3060.185772983614,2847.540959636508,4015.8117076881663,970.6058196646054,1410.8602539061394,2694.818537928275,692.9476475042088,-39.84678531492296,1407.2235918481483,3236.934581847156,2938.777673909171,3447.582607723157,2701.3251558007387,3109.046324322529,3262.635494927693,1417.6422045919348,1850.453231419683,2661.644777916572,1386.7661110520044,3913.310570660653,2901.530405889128,417.01171772988073,2397.517598594767,3418.9895193216385,1451.5023733763542,1323.0127420850529,2289.165883872626,4051.034864373495,485.0441097941996,3599.7741857699702,1505.0429143274987,4246.062419381324,4246.062419381324,2767.6736265435834,2935.566648354623,2933.629598775281,2722.9724369532787
3185.707661602008,2035.2281261928588,1369.77060197661,2851.797434208192,2864.7882915009727,4008.629555039648,978.6528502030544,1396.5189891228097,2677.7044456623653,645.3050218821327,-24.11997156382631,1560.2134314302473,3003.1014423471115,3020.479899689846,3570.118017740031,2721.3164533394515,3122.816953130188,3057.3088074248226,1107.876290611439,1720.558933859708,2577.166616875703,1375.7598533231871,3922.060688529058,2951.211027150874,433.3072707110971,2433.6209811779017,3514.7163751810417,1443.7752857344758,1355.5833166368964,2308.276675536677,4043.8671176668254,415.5066103216534,3674.128368084215,1414.513366617693,4217.752221059948,4217.752221059948,2786.5332167493134,2940.560161802852,2937.1202599945527,2764.3771524824624
3252.3057268664243,1932.248707376628,1347.7492193837325,2671.9757086595523,2883.6718439843694,4006.622977238257,989.1648616112408,1382.3461381630295,2659.391008181789,598.9399746108018,-10.776677475904762,1694.4004313513612,2752.9864074214265,3066.7790145587205,3683.4628663890553,2743.0724120330387,3101.593243744735,2836.2639317244225,928.4761808588984,1718.4095478946845,2448.372571664732,1359.7269344171232,3928.74290292327,3001.3507741571643,484.0321219554192,2445.98618490305,3601.324504688796,1433.0654210569012,1382.2084139666383,2329.9575167798093,4039.084535517086,342.29340382534565,3727.051635224608,1362.0511986202882,4165.320523447603,4165.320523447603,2807.731971149245,2947.38321294912,2946.504112904732,2809.029176010603
3321.611180852217,1815.8865378693329,1320.8242384534035,2528.252861952537,2904.144164463979,4006.771458278097,997.8355650405668,1363.2642732755796,2640.04060926278,554.7211547188554,2.272415223218786,1811.3093511665045,2507.865636245185,3091.501790323972,3770.64435851864,2766.64304515462,3045.93646304983,2616.198109172801,873.3320162597674,1913.433878697944,2270.744594701199,1339.975505756956,3922.338944297988,3052.066636248175,556.1488188477383,2423.069193905231,3671.334173804337,1419.2940700597171,1406.0509823113175,2354.269543982731,4026.0177264684016,267.5889133425562,3758.697888807521,1353.4248683372057,4081.91385729194,4081.91385729194,2831.134161151022,2954.789122821044,2960.537665954461,2856.897712346282
3396.136672094338,1686.922350958296,1290.5105536471483,2420.4821702904715,2926.093104380384,3998.167521121447,1001.9619429691782,1337.4760080513392,2620.7318769337226,512.5731346934099,19.91660666671919,1916.8660083764305,2280.1501288785053,3109.2907582102234,3813.349804188662,2792.2119251566205,2966.388952846325,2411.2281643331453,916.1445510694546,2305.9706129418564,2056.229840789634,1317.5669727985692,3877.285040305937,3103.713546503087,637.3395603509248,2364.1818713859875,3720.0735831837246,1402.5379674550682,1429.129548113816,2381.2325872742263,3985.507182840709,197.5847109211786,3779.209003478958,1390.6330947679626,3967.1933607450137,3967.1933607450137,2856.49742596162,2962.306189694418,2977.9896931151416,2908.0313787864284
3477.46365958472,1551.2965372221788,1258.0063098563496,2341.4256461495984,2949.357968962793,3959.737119916364,1000.4546783163188,1309.820255588039,2602.8296500719284,471.7832831024157,47.383477585090304,2019.0088911582773,2074.228670450057,3132.185163556391,3797.777573923479,2820.050583440789,2878.2465836950523,2230.213130762996,1020.4054151060222,2825.865833342669,1832.0319259606883,1293.1464775498998,3758.951708576463,3156.910603137864,718.642115089991,2279.7751815227807,3746.978757746783,1382.897848376737,1452.1841411669936,2410.796508527108,3896.610500033968,144.7134639680246,3801.010757645177,1468.774382436507,3826.547917974904,3826.547917974904,2883.4605485618954,2969.889320326086,2997.838789426437,2962.6065778119487
3566.221733710568,1420.5244995938572,1224.0276568532342,2278.289923856909,2973.8781912578515,3867.122843268065,993.5045510894892,1290.4647573919526,2587.4895039604776,431.42511025899535,88.52745427937975,2126.3663571388083,1890.110243286179,3167.640796045748,3719.1845143841247,2851.244671310564,2796.12175103166,2075.445725736472,1146.2085485072553,3365.0085691077966,1630.5726749906155,1266.950744997248,3544.062556686552,3212.3675316133726,663.880655509724,2187.084849091143,3755.301593308861,1360.4005003563634,1474.9413078348512,2442.850019251847,3747.4579862028095,126.08782559237602,3831.2896525246574,1574.824588736383,3668.777363648702,3668.777363648702,2911.6753169143326,2981.854037737967,3019.3868713169827,3020.9108069573767
3662.1359834853465,1308.2411655469846,1188.898570369813,2216.027737569311,2999.812677107516,3704.6029285892073,982.112314752188,1289.4385568516643,2575.3928128756274,390.645684165547,144.98803675658723,2246.228393110572,1726.322645689119,3218.2168108193264,3583.103793070901,2889.248408032324,2730.2551285741056,1943.2253570547105,1260.7385768031077,3814.399071939859,1477.9877985606672,1237.9223920700938,3236.193415847936,3270.626976407768,730.9015461879881,2104.0793553796875,3750.7470200094376,1335.045096570309,1496.5459080088483,2477.2689638884485,3540.2231170120504,157.3487062012682,3870.1361811654897,1689.427437288679,3504.215050117357,3504.215050117357,2940.9622883244497,3017.5646081190307,3042.3908424369124,3083.273608262774
3763.218940416001,1225.316014629067,1152.693942946839,2141.583899882222,3027.5224960969203,3471.37640905682,967.5917083346468,1311.707869636634,2566.662961109517,349.2282828482262,215.9662735990962,2380.600308033266,1581.1354759214596,3282.861060723602,3403.4842168645846,2902.8830831566456,2685.0827239903106,1826.078191647812,1311.9380003866004,4094.954155884107,1387.13052497096,1201.1070250623402,2862.634748191432,3331.949049209323,788.1149658911963,2045.3759614823844,3739.744403425488,1306.8471747306464,1515.9943696695614,2514.0003915742127,3287.789701974033,246.25585966221132,3912.759146239292,1791.1098439769942,3343.114822313979,3343.114822313979,2971.3424231317845,3111.131992167728,3066.979200386267,3149.8472728834554
3864.645674442285,1176.496605216808,1115.34636064111,2046.9628057241816,3057.526927811698,3178.6583324091766,951.1103766561008,1356.5100847131089,2560.97361139264,309.1602200034681,298.62421071774907,2523.5770448768003,1453.166017984032,3358.854986000368,3199.1398066891065,2968.6102236750635,2659.6907681191824,1715.464277398739,1309.3652285671535,4175.728663643467,1356.376596730899,1147.5748559926585,2460.1566140717987,3396.331256955904,835.3841019542517,2021.2698635570312,3727.9440280089375,1275.8443295425132,1532.449466912746,2553.144966047668,3006.999107116966,390.3705141339972,3952.079252223123,1861.201284191616,3193.0350325823165,3193.0350325823165,3002.933386374826,3286.677858192243,3093.30520435736,3220.462318191212
3959.012248989251,1159.7051674530348,1076.7378115813185,1929.959504627078,3039.901072787687,2845.301765577612,933.4081721184432,1419.4902017412903,2557.8188313998708,276.2938380637279,389.03352033440456,2663.214229577126,1341.443836119561,3443.043996817877,2989.9519660191995,3051.359942036527,2649.4634050868326,1604.2652292480184,1277.9346397846805,4074.103038003824,1372.8924081341547,1070.3176867257148,2061.904211897657,3463.5655243011747,873.7917943014315,2038.1874068200568,3719.28027769851,1242.164659946107,1545.390718400211,2595.0314860097146,2713.14074107906,579.7889679966465,3978.6112682803214,1887.313523644612,3055.142218492047,3055.142218492047,3035.830256210589,3532.699106314868,3121.4779772275697,3294.862313004589
4032.287792747991,1167.4990042087325,1036.768264155297,1793.4693264502616,3095.4045624238843,2498.249690751805,914.8048194280524,1494.8244431325477,2556.758373485865,260.0079524544187,483.0473934546985,2786.666473659474,1245.0627472079836,3532.342740481908,2793.312276063984,3146.6187138008872,2648.2260814388687,1488.8755215637286,1249.7380745086475,3840.6767010231983,1418.082339383665,970.2334062505554,1691.36691328888,3533.405872298533,905.2644323166312,2098.9560785476774,3715.682884816334,1206.0584156443529,1554.6221762592645,2640.2080035299714,2417.1683476080098,802.7314406624316,3978.318079777196,1864.8945510015085,2913.390525906328,2913.390525906328,3070.1046654326487,3801.5723391422143,3151.914777560365,3372.9755750226195
4050.1800872224367,1189.6538594474282,995.3992834953126,1644.5587003202104,3191.332228116584,2171.411350846556,895.3489450400687,1576.8921293992098,2557.4995960393494,270.4619220881066,577.1599162753391,2884.9474973692527,1163.703771295604,3624.3452400420974,2621.227330488955,3248.007124004798,2650.248316042479,1370.2704829689178,1247.5769966086114,3538.8421115717174,1473.079605293366,855.9994210682764,1364.1599547768278,3605.907576258792,932.0407780587038,2202.728356224857,3717.321871686481,1166.4831498008148,1560.196393190389,2689.2608136157173,2125.6149049753985,1050.1546045370728,3933.318597213685,1798.0449109036492,2779.7305268523733,2779.7305268523733,3105.924885917211,4030.7001581904015,3185.4272477049963,3454.8898483636485
3881.307219660244,1215.93563980228,952.6931719920436,1492.7954788804054,3341.7698740216283,1897.233564778632,874.910525105714,1661.763416525083,2559.8770997964884,315.0586491723766,669.8954647097846,2954.8202747142723,1098.9693043402265,3717.49351080049,2479.0001618276274,3349.8950930943065,2651.5388660284107,1253.0191775181072,1279.7583126991071,3227.243759950826,1522.8163252248055,739.6520005747636,1093.0515049423643,3681.608732925524,956.17289447833,2344.776774829919,3723.1701728233097,1117.6346308051511,1562.323875380465,2742.6363582673584,1842.2814345712168,1317.4090619982774,3827.683736946228,1699.3492581854366,2641.39133458927,2641.39133458927,3143.642514263608,4167.959309245086,3222.794430509215,3540.8253981299745
3642.363518618335,1238.2788788813375,908.8308008464124,1347.6657304955324,3538.897615759333,1696.1208412115377,853.2492246726404,1747.652253050246,2563.842521283127,396.2085354647159,762.9901491527871,2998.2758120898743,1054.4803966718034,3809.7023062251874,2365.7758549330465,3448.773185320625,2650.2097167717507,1142.6815724571848,1341.862157300709,2948.0905784586544,1558.0786327585554,632.0216035557066,889.3895725409552,3761.2615946313936,979.1734632373482,2513.295319605871,3731.34049403711,1048.9325869574395,1561.2930218371623,2800.4785104311486,1570.5688073476017,1603.5003042247172,3654.4770094399646,1587.2910785958163,2500.737466368507,2500.737466368507,3183.7138696839866,4187.566404245797,3264.340776862185,3631.2373643441097
3265.579119452762,1251.8680710836102,864.1015272979728,1216.8876726413926,3755.18181139944,1570.469768060961,830.1145140492038,1834.019717228596,2569.444291984644,511.5102695563255,863.1272597936425,3021.2811167950936,1033.9895615787852,3896.6942274933954,2276.467287007605,3543.148590474856,2646.153281734204,1043.747115873236,1421.8543591145935,2722.351210957117,1575.676414614907,539.8982064524191,759.8362192175125,3779.305013987617,1001.8456604653384,2681.0595724126115,3737.395627929862,952.3554278787752,1557.4003818806164,2862.4937286127,1316.3762971962449,1907.2258379117084,3419.0225648908377,1481.8987564388735,2362.374667686634,2362.374667686634,3226.55552470832,4092.893190503156,3309.84726264151,3726.423765443495
2807.0020366534336,1255.1059628036917,818.8454749220966,1106.6544837634633,3955.494182331815,1505.566877297011,805.3333113377125,1920.3428018215168,2576.769232456039,655.4083654491417,985.0279923741566,3031.7913074931967,1039.1211739417831,3972.3689981092975,2204.6090052746727,3631.989367662312,2640.4203086908674,959.1918552124034,1505.669731963471,2551.6767576141538,1577.1860958312436,465.1973309044158,702.8407113230933,3826.120436690767,1024.3185291228085,2838.375083594349,3729.947286494288,829.6975761942663,1550.8867393132168,2928.2591058682337,1090.3236159792864,2219.613930101352,3137.0648869130405,1400.41133544763,2229.8160518544,2229.8160518544,3272.475261530132,3910.7656132121647,3358.6906037451527,3825.120434337297
2341.850722020365,1248.803204658795,773.303449155577,1022.2466618083122,4108.254068079991,1476.011399241731,778.902602361072,2005.289374950873,2585.8998753752057,820.1026262640653,1182.8295838613467,3036.467217856484,1068.2101030169442,4031.0359915416057,2145.442689200014,3712.806967107009,2634.622590720278,891.0502211585363,1581.5051672267396,2424.224436693236,1566.937518311442,405.7268914657816,708.0388880897845,3776.096957434052,1046.2275831721245,2856.604230071857,3689.251442006213,693.0966646457291,1541.8597056262631,2997.897387359498,906.34831551053,2518.523175664509,2829.750907734496,1353.5073730916513,2104.1586627598444,2104.1586627598444,3321.7201871676057,3681.4937517006674,3410.204005244832,3923.122220189047
1936.4970341489127,1235.0663582558789,728.1731728548832,967.361306588568,4192.209438258024,1454.6120084902982,751.0557423135203,2086.484858817133,2596.889311100672,995.0723575491172,1368.748153134106,3037.804971007084,1116.4008476910908,4069.579728978538,2097.604661287512,3781.4113259517935,2630.4738682999337,841.1672547094286,1642.145151388539,2321.4031940403656,1550.0322478488742,356.868109038423,758.6660786862403,3577.198219391318,1066.9498361598455,2756.93494585032,3594.9206226786227,561.9136635219866,1530.2329878024188,3072.3920328998365,776.6133843002731,2772.8141850325183,2517.717367185456,1342.607677265018,1984.4201614925253,1984.4201614925253,3374.6402368404138,3446.9118068027265,3464.14871091654,4013.694278770305
1631.181605588617,1216.3304083259486,686.9760862343358,942.6698386959574,4199.986334114829,1420.657652568681,722.1470518022695,2161.298738384664,2609.7374852697453,1167.272008829132,1526.1123371833912,3034.008897649539,1176.6998013341083,4087.996111103712,2062.062290737083,3833.6089538773854,2629.365863243731,811.1972243411749,1685.371923527802,2224.4585941372293,1530.8863034568003,313.40718684459875,835.5631798154004,3226.3269603706376,1085.8226080646357,2542.059252366512,3437.602516498593,459.249735540448,1515.73783279013,3153.2490390338285,706.389081207911,2953.9456114142886,2216.269712652193,1359.577213090795,1868.8811307767687,1868.8811307767687,3431.776528202725,3239.7586305178656,3520.9296058791447,4089.825058798527
1435.9278154225744,1194.717085373714,658.255759793074,945.0953968646274,4138.948755197308,1364.9204030811834,692.4049653575025,2228.595823765867,2624.406913146355,1323.642419083938,1601.5500051706656,3020.7382112813816,1241.5970426870497,4087.869891922789,2039.3166338039152,3867.158560581696,2632.053120191742,801.6516170807572,1712.9470731499428,2119.7530333626105,1512.4150964084597,270.83916415284216,921.0868094575228,2772.032294556784,1102.3060462285002,2240.779535098034,3224.31254659522,407.6426097436067,1498.028036777494,3241.710785959453,691.9601363426502,3046.3401729468023,1933.816826976468,1389.618929667825,1756.7965962270482,1756.7965962270482,3493.724780972243,3077.864211893535,3581.5043874615976,4146.7161995671
1336.5568054398905,1171.6830011820796,653.993182742128,967.27305973001,4028.127663858803,1290.185044584704,661.799020221649,2289.882839874256,2640.845158259964,1454.7518689956903,1578.2168772913908,2992.4067877301563,1304.6457073263923,4070.954286846199,2027.3408689065573,3882.7113717855054,2638.656757753608,810.9938281700706,1728.9012123561115,2001.2152139100604,1495.84308255567,225.9533763473705,1001.8037185231316,2290.876827373529,1116.0936466002995,1899.893000744129,2972.5995405597814,424.2783195423097,1476.8701417448876,3337.397583113732,721.9045186452661,3051.432557851288,1674.6213407538603,1416.258769720105,1649.776868309645,1649.776868309645,3560.9695496783443,2963.681150553596,3646.912063936441,4183.158854360001
1305.8014451788972,1147.9263091084636,684.7105408645409,995.9567900642252,3891.303777133822,1207.9401036800732,630.1094699778614,2348.5188237417,2658.949940924588,1557.1688887669418,1482.7386855499387,2944.01302968697,1361.454877603903,4040.645543791155,2021.4247572991776,3883.571310051336,2648.913712827856,835.5781195534546,1737.838645191301,1869.767203306696,1480.9903776259252,177.12791112378795,1069.6659174942984,1859.87193552424,1127.166684215772,1572.7641753821904,2696.483185747998,517.3182265625674,1452.2821829944717,3436.6580116253213,780.4515472477758,2985.534991334752,1443.894792917772,1425.9629067317787,1552.208802263433,1552.208802263433,3633.823783614551,2887.508427478332,3717.396947046972,4201.484173752575
1314.434014032188,1123.494530604287,754.81165481516,1013.230482361622,3748.904296206127,1132.850582844688,597.1031819333559,2407.987647679237,2678.557423547852,1633.4143972656493,1366.1609405546835,2874.6778625856987,1409.967317117459,4004.486241220241,2015.4632203512192,3874.6599839850496,2662.374672798737,870.4098702121328,1743.7095576223096,1730.9258514758812,1466.789067126639,124.7344013420634,1121.8388181288146,1535.265670316433,1135.7687469826928,1305.8756758616628,2398.680575747293,684.5391264835102,1424.4946894293537,3532.235524882376,851.3638231656671,2873.8500260771702,1250.5666638170012,1411.0049177199455,1470.1327052717745,1470.1327052717745,3712.383812349187,2832.962546672872,3791.494358494116,4206.468709119514
1338.0908406099502,1097.9907922916614,860.2939562283132,1004.3484465893335,3612.4304742224094,1077.2538810251708,562.6696800236639,2470.5837379538134,2699.55079805824,1690.268425341372,1279.6530382555056,2789.772908471965,1450.1434830926862,3973.044411866717,2003.88205943536,3861.223279028314,2678.4771926001995,910.2607845846304,1749.096550792848,1592.0758953302118,1451.850833096608,71.35277941937034,1159.5615488130863,1341.8050705908884,1142.2825496797363,1127.9406829948605,2079.135497618734,914.5638268330886,1393.8280195777568,3615.278180187901,921.1786505385804,2743.345130070404,1105.0249403710695,1370.6104823197184,1408.997902518741,1408.997902518741,3796.324119899584,2783.3285537149795,3865.413939444357,4203.80937500086
1359.0324890181212,1070.8179220163806,989.3755634488044,966.5546911260864,3389.035560315848,1047.6970832411243,526.8229886644124,2536.323687531417,2721.9796746117268,1736.7360448020372,1257.8568660894734,2699.227367953712,1483.2481129026924,3955.194635534796,1983.4037022482016,3847.727532088989,2696.6951626736536,950.645207133662,1754.8434593260877,1460.260435835863,1434.946816959134,21.129796332928663,1186.506338531644,1273.0546328613625,1147.0470248588997,1045.664724741937,1747.082942841054,1190.005221080996,1360.6119087422442,3678.47570510737,981.1038871873976,2616.793311922298,1014.2706922320932,1310.2464950699527,1371.6301421430271,1371.6301421430271,3884.090980325678,2726.559610760033,3933.386230314529,4197.878423735818
1366.1211968050077,1041.393911337696,1126.0107107353824,910.84378487128,3261.553883428298,1044.1524844257742,489.6490987579919,2602.179503920101,2745.997607738989,1781.9243868376216,1313.145199009875,2613.8065714485765,1511.016626207486,3953.013409934792,1953.6975746752405,3837.198775558793,2716.765941381278,988.3982509644836,1743.469378291804,1341.0032859284595,1415.2807631624542,-21.35069592457603,1207.082986348231,1299.9479311560358,1150.210177011958,1046.3881302351583,1423.2328953357865,1491.5393820408476,1323.8882132885774,3718.37739926467,1027.327827191482,2509.274644288143,978.3795380917996,1239.0974333464146,1357.286353752408,1357.286353752408,3971.6698715297,2657.343246629416,3989.353318641965,4188.1342211425945
1355.4482890840263,1009.2853463178838,1254.9991619299726,856.300413308619,3130.3459170892743,1061.3249234558043,451.3122900175301,2662.607252723847,2771.653966099745,1832.91734692694,1437.6977103877348,2541.8333175448265,1534.983361034102,3957.457755097027,1916.5696657790047,3831.05760306001,2738.7819777727946,1021.8054456135976,1750.466501108803,1238.6687766640437,1392.5363730864278,-50.38830275566284,1225.0988785513662,1382.935920957339,1151.6892966250175,1105.1958097744375,1134.6463845099145,1801.6484488159024,1278.0770244426517,3736.009089558089,1060.075867531393,2427.3124690428103,989.8198011074888,1166.7751055678757,1361.870020693952,1361.870020693952,4052.43198213073,2576.539313624652,4029.047888806448,4167.2907149943685
1330.342374428957,974.8355659055368,1366.1500177418643,822.0618068147523,2991.003877197861,1091.0341163927878,412.04254039463126,2711.479244209791,2798.7776166531503,1893.3508563225464,1609.9025866817965,2487.4741022262065,1556.1458291124472,3948.5542866624487,1874.59709787837,3829.353578962108,2763.119084621747,1050.3973997083672,1753.8001911070685,1157.3883513818023,1364.2457986642105,-55.66112719504622,1242.9955532501212,1483.4597482057345,1151.2478583911868,1193.3642809230112,907.2609248862824,2106.787218278477,1212.816641866742,3735.9931013569767,1082.1088093119663,2370.128592928194,1035.380381142165,1100.6245227097652,1378.4901712087562,1378.4901712087562,4118.9407520919285,2488.9570978013394,4051.245195559663,4125.209725246139
1299.1090961321895,941.1540899983738,1455.6515902569586,821.0584436213405,2843.251200107762,1124.7116027527072,372.0899185145256,2744.482566644503,2827.026457454739,1971.253648459177,1802.6072425505563,2450.6864128524103,1574.9425556264034,3794.464465837728,1830.5651515327288,3831.2286074847134,2790.320477341716,1074.5927283181557,1752.5365858798584,1100.7192364920552,1319.1159161213766,-20.52604639118954,1261.663797356393,1571.968459162502,1148.6289715677976,1285.4918475976187,758.3663005776348,2398.024137554553,1119.9808059083723,3724.846545129484,1097.2114730891956,2331.888789673808,1099.6706381464946,1044.4258271643405,1398.0453124276178,1398.0453124276178,4165.560212230768,2400.3131059193224,4057.807998152141,4055.407115123248
1271.2761312681769,915.7309639404898,1524.8079102783886,856.8029939722574,2690.4523873922253,1155.3104996909142,331.7350336336292,2760.655480327358,2855.9919766562484,2047.1818099423656,1990.2492655505905,2428.296131794936,1591.3901814838907,3700.7375068128167,1788.305046393942,3835.405929292938,2821.007672991946,1095.2821981330512,1746.4773240970617,1070.1007924306723,1236.8697247560772,73.2342608012791,1280.7480019288398,1631.4906938091383,1143.6429840221508,1363.836759007529,691.924790733483,2669.9466739067066,1000.7837122675556,3709.177799548396,1108.9488494867592,2303.869583265175,1168.6624268227963,998.5051533925318,1411.2074205200738,1411.2074205200738,4190.2209034444295,2314.427422111833,4052.799961503034,3958.398847262063
1254.2161434779478,908.1659551377422,1577.256615896261,923.3361334157412,2538.5415382077126,1178.3219579805764,291.2540793629448,2761.911730388524,2885.344447184212,2122.8585629491017,2153.0460764426875,2415.5510701726325,1605.2503984528485,3561.7826873778586,1753.945344183723,3839.488984708248,2855.8024160774457,1113.4009758542502,1735.9462826414874,1063.729104339799,1102.2997984741878,237.475623168531,1299.187425788956,1657.2416901362255,1136.16863965925,1419.6595917834006,698.4530706981031,2915.683996785442,865.751788024399,3694.30502247902,1119.870319710879,2277.016774050788,1232.0523725850962,960.7181629787236,1411.8279143243076,1411.8279143243076,4194.703776206695,2231.780235483284,4041.1836877801625,3841.4091972173273
1251.323563805795,924.7667451983832,1616.002351985499,1008.0610525863171,2394.7283172791035,1191.9426639379958,250.85527937617329,2751.101671222844,2915.019209521437,2193.592756614544,2279.1736126428964,2407.654699400492,1616.1517665556748,3391.6611868424816,1735.807081612169,3836.703648480925,2895.2023098367663,1129.6163113795174,1721.526316768822,1076.7534338402493,920.6752618304316,472.556575076308,1315.718551956349,1653.5703563522377,1126.151445886269,1452.170836852682,758.8161574407634,3120.3223963167407,729.5777317074806,3683.540709169788,1131.2609057367536,2365.7689810817424,1284.1169551231158,927.6844819843086,1399.1015879108313,1399.1015879108313,4183.696825187759,2149.8976839493266,4027.588357144915,3716.662721627261
1261.8932982554193,964.8806009252572,1642.2375976077324,1096.003783195204,2265.745040595801,1196.5849908565892,296.5865562001868,2730.55183449656,2945.2804026211334,2257.791454500413,2365.8355194060628,2400.912063841196,1623.6743143780025,3209.950840463473,1742.2880466097658,3813.416638886592,2939.47380676231,1144.2464191794793,1703.827817873703,1102.489679593897,722.5797783150456,766.5082753955867,1329.2717174097024,1629.8132323237596,1113.6380746990897,1465.9765412330185,849.9370384499016,3262.1760720958464,605.5118956444535,3678.1330423516974,1143.3365649260654,2319.2165418678,1323.3368551938102,895.8678088648576,1376.8789619869551,1376.8789619869551,4163.144568945704,2065.202349732653,4015.462156564778,3589.209325260792
1282.207476413608,1021.5334811607464,1656.6721511663616,1173.363889082791,2156.337317161634,1194.0382913986468,264.9232524390784,2701.919495630399,2976.5962947884736,2317.73415306588,2417.998990895542,2393.2327150706324,1628.8290749611003,3035.587262393865,1778.6405546063197,3752.802208562023,2988.706444002033,1157.3392359185043,1683.3309231718586,1133.9482191623918,557.9634964421314,1097.2570962719085,1339.210465008523,1596.3641719875286,1098.7613794570373,1468.0687048043023,950.3056259649944,3324.2455834630296,501.71307726504415,3677.687251280832,1155.5956033439918,2269.3282086090035,1351.242693782585,862.3807099404726,1351.2167625042002,1351.2167625042002,4138.267260295688,1975.5058065562107,4006.280172068909,3502.4766785369384
1307.1589810174469,1084.5799313099046,1661.6227722808844,1229.8597275367456,2068.698887728337,1186.6208205530706,256.12823074048606,2666.6900675789416,3009.4723227210684,2378.248198229482,2444.404190476761,2384.037563183306,1637.941721899155,2882.478698300054,1844.58102569013,3642.820248615654,3042.979576180602,1168.7680565324115,1660.3400766929276,1312.7012195111745,480.330344799049,1437.1708009743963,1345.338680869152,1561.7546391201392,1081.6698549408834,1465.3040245405562,1043.818124936903,3304.829851957689,420.1352109933805,3679.070423758884,1167.1490841307943,2221.3456071951728,1370.980563302254,825.4951520354418,1327.8854856337475,1327.8854856337475,4111.861828663498,1881.9236869553808,3997.4207740701295,3234.8808638019527
1331.7872910173571,1143.4091100608775,1662.1343045283602,1261.0346457677742,2002.769562362,1176.5083758095147,284.0654904681676,2626.624557907174,3044.3071516402983,2443.163210108085,2453.6877418215217,2373.8560876493416,1663.3679451588407,2757.5259480445766,1934.4791207766648,3481.776900153918,3102.481548098224,1178.0515581932282,1634.965765094391,1341.437708446824,527.4942048149258,1759.3339202729137,1347.783320202499,1531.1215709013463,1062.4683539458656,1462.8085567035196,1121.3602084563408,3218.723374877953,357.50071248137647,3671.510822462108,1177.038454028644,2180.299480471472,1386.0120129423958,784.7210001059038,1310.730286013463,1310.730286013463,4083.951800342444,1788.8988048204246,3978.770561432563,2823.921519833307
1352.3156159942182,1188.4485929667749,1665.7502978662424,1270.2404312400065,1956.9179982360624,1165.3075609003697,353.2413106287461,2583.870304922385,3081.3134867043145,2511.447703509274,2453.084805365994,2363.793763345456,1715.858409678845,2660.93103732906,2039.6127345594564,3278.4733680883064,3167.5556902444728,1183.7358847533612,1607.0757119720083,1363.2390679422006,708.9326324779208,2043.4923056008809,1346.8695478690631,1506.0273632876667,1041.229070279989,1463.3405218634157,1180.3235835556898,3091.057361776789,307.44945255645894,3633.624667187636,1184.4986409967614,2149.486650670027,1399.1705056569172,740.5068555392672,1301.0412634739755,1301.0412634739755,4053.0912132101503,1702.245372356692,3932.567372648486,2303.879185945272
1366.6057232091844,1212.5889736329432,1681.0043915269544,1267.931960545871,1928.555978116936,1153.8561944231442,456.180800119796,2540.68558207418,3120.5943511313176,2576.340303778181,2448.669767125953,2355.027580996951,1795.4415477021837,2587.7079428973184,2150.5308641283,3048.5835328794296,3238.599990802624,1183.379993633861,1576.36001304297,1377.7173599115522,1003.482563053707,2278.97719818124,1342.9840281787774,1485.2782326083504,1018.1005735769276,1467.456535427701,1222.807615881703,2949.062317438364,263.6343401611948,3497.179731362295,1189.0894951523098,2129.9814157504284,1412.1469356102916,693.8768664369968,1297.7933005425898,1297.7933005425898,4018.300350814076,1626.7271225855025,3840.328805567277,1767.8163715017902
1374.1281156555142,1212.8263960823365,1714.965993349549,1267.2616020742107,1914.655308713616,1142.2055456172957,577.2289111399173,2499.017122496856,3162.306244290413,2628.277121660163,2445.3613844924,2348.617305474029,1889.873443001617,2529.299775381906,2258.9299362259694,2809.9924044316163,3315.522287184799,1174.979970548846,1542.566493395978,1385.6877943877348,1366.2712740327845,2464.022034858397,1336.4514829466152,1466.2483900703085,993.388256572257,1474.129829365671,1253.452439238265,2815.238643106326,224.41120780761435,3336.7101547000348,1190.6986625836466,2120.9426188789485,1425.4074103800758,646.0518892508017,1298.478483644088,1298.478483644088,3980.447456184611,1564.3426400734004,3692.5714387449552,1313.213038804997
1375.5695228727775,1191.039981830766,1770.8345130809012,1278.713938130617,1912.3499987891032,1129.8279693967595,698.3825568323848,2460.210029989865,3206.818548742881,2659.082819395181,2446.5931559730475,2345.5222919196367,1980.101780019116,2475.296724144376,2358.761037984568,2578.829679335812,3397.175176743519,1158.476765092958,1505.6480822106994,1388.567287694925,1741.8924932133743,2603.058764830228,1327.470067576019,1446.1477550131676,967.466366221257,1481.480711951297,1277.5218170930125,2703.552667372154,196.93059505008205,3114.3843425741006,1189.444032133411,2120.3220398702574,1438.4661152225258,598.0319885942401,1328.6278673482554,1328.6278673482554,3942.05043262956,1513.228884743661,3493.536864894464,1003.2229332321444
1372.231900148319,1153.0770998961782,1846.6829102668528,1307.7653145637598,1919.2946719765127,1115.984039873738,803.951064803633,2424.9855029786468,3254.817335694583,2664.823247893585,2454.141597130567,2346.4231798536607,2047.541064884714,2415.7525505218323,2445.485698342162,2366.94351171763,3481.9362086753745,1135.8878121093771,1465.6838418016048,1387.8451328403398,2078.849869317344,2703.1542498920007,1316.1083201379547,1422.831575571989,940.5468646511324,1487.4900560000938,1299.4807833319655,2618.8354342414555,195.8364450989652,2853.679700462375,1185.528763138736,2125.680496855151,1450.3368181219955,550.3625503071446,1327.6996241742124,1327.6996241742124,3904.7376761790338,1467.4827018213111,3258.943140146397,854.3420737787383
1365.4456350843482,1106.5595208790692,1935.6978603929656,1356.1136723200573,1932.0380747953693,1100.015919437009,883.207190929241,2393.642172248148,3307.177805258408,2646.591584315842,2468.2754155547245,2351.465732382137,2079.5150355448545,2343.748614545096,2514.026703952293,2180.957549334096,3568.4141385341063,1110.3176193551053,1422.803855838465,1384.7080370614624,2340.389245227,2770.502416747492,1302.3386233961432,1395.094766036633,912.4775342921248,1490.5785055238753,1322.2137360461445,2558.5204025999874,236.519286139634,2585.594780138971,1179.1475573061207,2134.863173691469,1459.9776397132323,503.1582570032665,1326.5244834500963,1326.5244834500963,3864.247742112852,1419.2443505515937,3009.8976227530925,842.9874640716785
1356.2156917388518,1058.6129161958372,2027.883153068823,1423.4894753183598,1941.5149930598216,1081.482786686077,931.6479271645374,2366.26703372524,3364.588100185233,2609.664867306388,2488.165628812306,2360.254090797014,2071.77013363097,2256.666835257261,2557.641736476593,2022.5127228301903,3654.298213072966,1084.719608906344,1377.2525240311595,1379.8463836044589,2509.336709793416,2808.8239660004106,1286.078402403315,1362.5992621474693,882.7777574730414,1489.8824098148248,1346.7671034359173,2515.56638874392,328.1458592150516,2337.032396278089,1170.488728869207,2146.369147461036,1466.616339956417,456.24224517534776,1327.9908189941102,1327.9908189941102,3805.373165325804,1362.9850751160766,2766.058398916106,921.7600346644184
1345.1320845101395,1014.4282164937208,2112.890166180978,1508.2386331715677,1931.312883092654,1060.2060272676365,951.0958199525758,2342.832997598509,3427.1944607191444,2561.6562455997782,2512.4137879939044,2372.0899145530084,2028.534992432516,2155.2322889233924,2569.064064304958,1889.1926383356813,3735.001196463272,1061.0167891187084,1329.450863406076,1373.4630718598014,2587.3998306902004,2820.2329703510973,1267.2274000375874,1325.631704877029,850.877030498377,1485.2321799471556,1372.4158041038254,2481.643225612471,470.4618627072457,2122.481448081084,1159.7833030908355,2159.427137960831,1469.8818246879914,409.2829916172423,1335.2629883948298,1335.2629883948298,3745.109528902235,1298.9416066535798,2540.039107458997,1037.3898627138988
1332.414204421873,976.7823423323492,2182.695242162216,1601.7430311254157,1884.8133689892468,1036.2260270870927,948.3646589706872,2323.194261593396,3494.436885836192,2510.341508145063,2539.536896679553,2386.3200772990185,1960.6190731319,2041.732659010656,2543.1103863399685,1776.3273948095325,3804.5608506377785,1039.7962474360115,1279.9616501036323,1365.415471493562,2591.1575883287555,2806.992802558135,1245.700302403057,1284.8593187468705,816.3728400441473,1476.9749562886864,1397.1444668368515,2449.7339338387515,655.2813589201523,1941.473811395707,1147.3082353819634,2173.924123257888,1469.7362691229196,361.9212848522923,1349.5773051591632,1349.5773051591632,3595.899161669804,1232.914572900556,2334.8864802927383,1144.941903512637
1318.025354075785,946.4668248112052,2232.6215586584526,1793.642879618195,1796.0760128549814,1009.6765782353608,933.257265119534,2307.0504222525774,3565.279501944304,2461.8407705366085,2568.294326504002,2402.618035055736,1882.0370876893976,1919.2956062713347,2478.9427690239063,1679.6513201259531,3857.964262319361,1020.4978575906316,1229.334541393653,1355.3788068018944,2546.694702622875,2772.7560295655235,1221.482810602804,1241.131028813732,779.233037167995,1465.7514271928771,1418.5060727522884,2415.5313509683865,871.0790769212422,1781.7235807997608,1133.306212858157,2190.256823646471,1466.341993890717,313.9430047898245,1370.0275406135595,1370.0275406135595,3421.7198015716967,1173.1365876573896,2145.986638002385,1215.7132497487191
1301.8163498469262,923.5575836152868,2260.6594296774983,1809.404424087924,1674.6638133343222,980.6966130609796,916.703931863222,2294.006138662764,3638.936237776613,2419.769633038129,2597.847139279401,2421.0620178332074,1806.1975221120424,1791.9789304207957,2381.082411473816,1596.9361093560783,3892.973992257799,1001.8901609670812,1177.8816618883573,1342.9756511101796,2483.881580501681,2722.8543957864804,1194.706355277482,1195.2999499359853,739.8248588775912,1452.2855272576248,1434.450360544976,2377.608634584404,1107.4501845485402,1625.2134427862184,1117.9033602591253,2209.0623420292163,1459.975182755305,265.418266019803,1394.927795409702,1394.927795409702,3262.9912783482123,1126.685448510221,1964.744413199469,1238.754527500098
1283.5762239578276,908.3689277416732,2266.740137667368,1746.1084739172384,1541.6996688603947,949.4539813272252,908.629044500148,2283.726773907862,3715.2557785819217,2385.520097556984,2627.8026420877195,2442.058979468671,1742.7409667597767,1664.305539585207,2258.802927503455,1527.1929717692417,3910.671412884393,982.6009140774888,1125.5504276860586,1327.8649574619149,2431.350293181164,2663.6931516807463,1165.623282658568,1148.0773201570278,698.704601523147,1437.1924378290607,1443.8101773140834,2336.785647706835,1356.912359143277,1455.2352241887563,1101.0885568967085,2230.934914540881,1450.9637730708728,217.1057516787264,1422.949451709345,1422.949451709345,3156.780329455284,1097.1380997016238,1779.763979875357,1217.6455951190069
1262.9896491752022,900.6443246822353,2253.151552097916,1619.1886122527071,1421.1430019667573,916.1915524791902,916.0278414667908,2276.085812212854,3793.808682124421,2359.03823628399,2658.1623208047527,2466.1868028442977,1695.842930121542,1540.5572982390909,2123.799212093993,1468.835400710231,3914.831850337576,961.5262372078784,1071.9396545308457,1309.8308343001513,2413.048286832688,2777.122034372811,1134.4368943276831,1099.9538535785844,656.3754903639554,1420.8488715279989,1446.4254472548805,2295.1408571833585,1613.4809576058606,1264.677953822507,1082.7292011697252,2257.952179858259,1439.5947401193291,171.6326048774083,1453.6552092586078,1453.6552092586078,3122.881374217719,1084.010649336606,1580.137821405233,1164.8587164532455
1239.6872654016274,897.8607812614118,2225.254681544712,1464.701833164639,1331.6347977236674,881.1968322342364,942.4311781069188,2271.217500123199,3872.172789240586,2339.481393099912,2689.156107957405,2494.029281664457,1664.7071844044374,1425.3799530129022,1987.2104791034767,1418.5372551799778,3910.6424834633553,938.006521792358,1016.4783302558776,1288.862156463897,2446.412289101151,2715.9301836181626,1101.1741513279148,1051.6340871162763,613.204398936107,1403.3906461655772,1442.9539677898488,2256.241053682807,1870.1810536665828,1062.1408242906336,1062.6196261398184,2298.0289251113195,1425.9856055403343,134.05517603272142,1487.9044769950945,1487.9044769950945,3161.4253567166843,1083.6670245455866,1364.99125052105,1095.856302728931
1213.463649773853,895.0472258245029,2191.383866182872,1318.782122181202,1282.0140313623926,844.4618268139225,988.34275843939,2269.4140474724472,3945.106060333298,2325.6881669789127,2721.043993560577,2526.1596660524747,1646.1698036845464,1324.924065178929,1857.189136644896,1371.6971571917866,3903.322998558415,911.7945185307574,958.8178068417742,1265.153725481227,2540.5569765163777,2660.5028729015744,1065.743613897612,1005.4897028513165,569.4504882253386,1384.7713120904782,1434.486045439636,2227.7093946379327,2118.997771531482,869.7498873673044,1040.5718438387448,2365.2795583470765,1410.0065938959683,109.88722479433,1527.849831711024,1527.849831711024,3257.437040366919,1090.8909442563386,1149.0796032272178,1024.7427880045873
1184.4643963308508,886.6380000386273,2162.234787685224,1205.9189451239552,1270.9223319559392,804.9394500157405,1051.7843982727386,2270.9838009108576,4005.759183301264,2316.4831045084134,2754.064230432131,2563.1832317412864,1637.4571552900916,1246.1302815241877,1737.473814719997,1325.0428495853882,3897.06191083216,882.9269244675106,899.1446437533937,1247.695930162633,2692.070947072364,2612.5418432854904,1028.083327168145,966.4336344416812,525.477165822761,1364.8087063325595,1422.1693516220762,2221.342997457678,2353.1469913040887,713.496544641217,1016.4951205295732,2471.10547987802,1391.3546103555757,239.54177132558493,1576.1968445925604,1576.1968445925604,3388.2234374181817,1100.3900375744129,956.8044910283828,962.8830200284488
1153.140750130257,868.3793463243376,2150.055180266958,1135.2195335669628,1289.4000171756948,760.5085282510461,1129.1112601659015,2276.180010859446,4048.196436864284,2310.819308938775,2788.701155958862,2605.58141279166,1636.7707395359723,1194.2368687143926,1627.4249546732312,1279.50689157339,3894.464425274686,851.5941123021719,838.0499763507391,1276.615385888456,2881.123336335453,2571.9497107315888,1014.3538118314642,939.796711615749,482.3159088528751,1343.2502879185697,1406.9421678498888,2246.6831141321563,2567.2101151794004,613.0017818815325,990.4261272508857,2614.9950138295426,1369.7743366509258,300.07963957609127,1634.964028062128,1634.964028062128,3530.395083242556,1107.8895071343868,811.1546481155356,919.053887897736
1119.0600847941714,837.6796551190268,2166.937907510281,1102.5014769196846,1324.831874381062,709.4916151705379,1216.3803220539255,2285.1007135450345,4069.493628374996,2307.8905973892297,2826.17022423663,2653.483695691048,1642.3493917542412,1170.6040651678309,1523.517511435859,1240.308673214898,3896.509171130084,818.0911049112701,776.1179504730908,1423.2864519824066,3074.7292622297987,2537.42805021255,1018.9877968886548,927.471909320333,442.1166963678495,1319.8543183127204,1389.378405927867,2304.2776844194686,2753.89398146019,575.6110011950186,962.5105641696092,2784.35933718277,1345.267596185252,507.3377947405768,1704.4598478467346,1704.4598478467346,3664.323641118842,1110.7195947887071,725.4443882970922,897.2724556512132
1078.1767613727093,793.2851505460887,2221.7054639888875,1095.4064045391278,1364.735874130594,652.2231148755714,1310.6439364907365,2297.6150582958726,4070.4486153271528,2307.235156375899,2868.2804544800383,2706.733860231436,1652.6693565424014,1172.1576834951952,1421.5676015825131,1214.1862039906164,3902.8787619350296,924.8209098421798,713.6667864269225,1741.7484794955783,3237.565514602056,2507.24669919196,1123.2168153322973,1105.1065006230233,407.7373430870764,1294.449839444106,1369.659360866368,2385.3861517455016,2902.500781405084,595.8058514887584,932.9375560728204,2960.923578212816,1318.103014399277,918.6502363168934,1783.3348099365385,1783.3348099365385,3775.8037577120112,1107.9015144402674,700.2969846506633,893.3438894554449
1022.6567526199622,735.6771122760163,2315.7468293121688,1098.975461770814,1399.4191520817533,591.0612732737493,1410.372902178106,2313.471878398368,4054.973431979354,2308.683335486526,2916.221851827947,2765.380806543012,1667.8863775973075,1192.4233056727944,1319.3050898055772,1206.1765822729594,3912.47516426843,885.3174813813102,651.1667839851914,2221.2698936994407,3343.51014279901,2479.8822846134844,1370.9541488476748,1112.6892735681504,381.6368846717314,1266.9738787738618,1347.6893352563152,2476.546272679437,3002.217810527529,658.693883570334,901.8687089991996,3127.873416424914,1288.6564578292737,1519.790611489293,1869.4815390558529,1869.4815390558529,3856.4981931399534,1099.8415967384285,725.2707158409203,895.5879765388611
946.2668404788884,667.6756428472349,2439.929440177559,1100.061945858224,1423.2255595285674,529.1892832684186,1515.2958423460277,2332.475836970223,4028.710087426812,2312.180246896348,2969.505854919984,2830.137857804146,1690.2134615673824,1223.3870882100705,1218.655125316376,1217.6991572722045,3923.308185821601,845.0043270635563,590.5843196956887,2788.632159780357,3382.0935772507287,2454.3660763032303,1749.667632185946,1112.7615767850175,364.90961246493634,1235.2179768070168,1323.2902238768222,2564.8812220388168,3047.147611188545,745.3641911220652,869.3787734217317,3274.731834437608,1257.2446131318784,2227.622520475293,1960.6048125639293,1960.6048125639293,3904.082043246464,1087.7830474780512,783.3145106401719,890.1589096072312
849.8526255784777,594.2194283110434,2575.912565995488,1089.8905685997734,1434.5306257305574,469.3352049143061,1625.9066782667278,2354.537525945673,3997.491463384955,2317.688573692095,3026.2034209681715,2901.9458825617216,1722.5379396326273,1257.357030053891,1126.09843907072,1246.330439706731,3930.0573126309664,804.3869612085775,536.2326579126316,3344.1733195858537,3358.4674379339685,2430.320862294136,2193.800225887592,1096.8620244184358,356.9550587626402,1188.934875867268,1296.3275066758697,2641.815490492462,3039.191092464256,837.9602228015704,835.4154588777876,3399.0301215924687,1223.74911189188,2930.113123314969,2054.004821861242,2054.004821861242,3921.6561142621113,1073.1989013715945,856.0001286578238,866.5041283408355
741.349664241518,521.9609809260176,2702.121605198141,1064.744672427877,1434.8070944493302,413.1292317197747,1742.4355335396262,2379.5834221798186,3966.1199872678944,2325.2133321666674,3083.983663854061,2981.025101333923,1766.5577471647152,1288.3313249188072,1050.182375237294,1286.8886024934336,3920.150754169279,763.5150265818841,493.6669369605477,3799.628822349034,3288.819033867724,2407.820078845352,2616.952063491207,1059.4190392862006,355.9580009233466,1109.6846721716329,1266.7503609396626,2704.3870761091166,2987.759307074128,923.1171815056564,799.8650659748616,3505.17769770882,1186.8759292104282,3360.3306720241694,2146.1955329787806,2146.1955329787806,3916.17766304398,1057.3283085765097,927.799581812072,819.7213864924408
631.9618288560757,459.6575543789186,2800.7261473185736,1025.2082788734049,1427.2623115519746,361.0623362308122,1863.9705668804777,2407.468875488802,3937.653249898025,2334.82226922799,3140.9606570237684,3066.86427717432,1821.388165878593,1312.6744788309184,997.4494317505709,1333.0916149131745,3873.9899862306033,722.3212173270435,468.0154948459292,4102.309578458725,3194.1367963193534,2387.1921864137066,2944.8093787976336,998.9060157411276,360.645106436383,983.4685372147358,1234.6302557184165,2754.453512582353,2907.2555334073777,993.3957417981017,762.7345844490283,3601.5694842289604,1144.1874598993911,3802.840602406624,2233.0632651752103,2233.0632651752103,3895.855266877256,1040.9547675900844,988.4940785267772,749.7220399576499
532.2876826224447,418.2087047176847,2862.169796562791,974.6614794451502,1415.5142835937722,313.3292570356589,2045.5936296134687,2438.007291330159,3912.6225308291896,2346.633333903106,3196.0462051656045,3158.7499455317547,1882.96541218505,1329.115978103228,969.296063703106,1379.0662199627968,3772.628328910828,682.2340877641277,463.4430803709731,4241.44392752102,3094.456526129632,2368.812219623283,3135.544457585516,918.8041604135408,373.1014999402476,814.4679305176942,1200.1763845163596,2796.8269820692053,2813.6106380352967,1047.0959238892997,723.8784511638419,3697.2386261909305,1093.7660101605666,4066.727415835006,2310.9431127948747,2310.9431127948747,3866.907311298526,1024.4114780475747,1033.6698621435892,659.8345978739303
450.0310707303006,408.3798178416755,2886.1920741062963,917.6569314213472,1402.560885444531,272.554514287817,2172.5661336983103,2471.0472361355937,3887.202823768858,2360.8831946569803,3249.028973798572,3255.079605489186,1944.5545208426904,1338.2190070745423,961.2937003681196,1420.363566524697,3607.624651954583,648.200729037492,482.95698837068585,4238.957729851009,2999.793144689349,2352.956784291536,3184.722712872717,827.3928488126921,400.0316482592091,628.7885299694483,1163.6494827726478,2837.362172995099,2720.873339713006,1087.0254003106736,681.8946805106925,3798.851934362122,1035.946683932886,4173.287334735762,2378.547359491384,2378.547359491384,3831.9334926446777,1007.74168769111,1063.760939586395,556.4906903729052
389.0316591684148,437.7154686991166,2879.9355246243867,858.5418551872949,1390.1646380481034,246.5597503901622,2296.3381441052647,2506.530541542297,3851.838453904085,2377.9619351996444,3300.464710019548,3351.7745325373053,1998.273026250736,1341.5878504455793,964.8314893465332,1454.454080243052,3385.6771931116496,628.623404217497,527.7567153420084,4131.996132440416,2895.464359895977,2339.775723037304,3118.027420892295,735.579706044163,450.019324938243,468.92682881618543,1125.1943111254884,2881.476976695859,2638.746608539533,1118.2892181659347,633.9210296350489,3908.106423169341,973.4032452631304,4165.419293288997,2438.276832842968,2438.276832842968,3790.908416445725,990.8476724810246,1082.3096341096248,448.5225662424741
349.3139865203177,510.1809581583286,2854.4642277326266,801.0304288558484,1378.722563596005,246.6887904340158,2413.8497207153737,2544.580221308179,3793.9369429698686,2398.183331928251,3351.378612830963,3442.069457229634,2037.1265523145864,1341.099507518422,970.0632703654024,1480.706206077608,3126.513867298934,632.6230820290964,597.2228505754281,3957.513510351273,2742.7513388379484,2329.3239462903475,2977.7300004342897,653.7191098684227,528.646597328099,380.4222672546575,1084.7486832547356,2933.320156144377,2571.6994240165527,1145.4772671625965,577.7462523945167,4020.5503485037343,909.8286228851246,4092.716229998688,2495.21028514344,2495.21028514344,3742.4106561349977,973.5064789236096,1094.0631471171723,345.0283910392666
328.42648666267087,626.8494634961426,2821.316460491266,749.1179533944737,1367.593397410039,282.1707558576395,2521.723576003088,2585.6133358627003,3704.270370887248,2441.337775273071,3402.9768585308693,3518.522731475112,2057.263647302545,1338.3078896046954,968.6755079225566,1499.911763153053,2856.736902611469,666.6849739187996,690.0612700965507,3745.085052936017,2509.249230726984,2321.586397383803,2808.620030539245,588.8717001970397,635.5781263541239,394.89163655568177,1042.1480904455952,2995.557008894869,2519.5601341755414,1170.7787627151656,514.054922233398,4127.30860106698,848.3577679569007,3999.5400991791657,2554.681504063987,2554.681504063987,3684.281382438776,954.0982048594852,1103.3469632747328,253.33220830013624
323.37615420504176,784.4031026873895,2790.138919316169,707.4481427245912,1355.6559901298265,356.1979073826128,2616.1910363084417,2630.370555102056,3582.229587097757,2482.670281624226,3456.4426866592994,3575.711889794884,2059.854337113323,1334.148102604724,955.4516864632562,1513.604056444381,2602.338724596243,732.3570162431204,804.9278117889287,3516.407152254712,2198.361127661457,2316.5060038640977,2647.2981784563344,543.2041163719616,765.2766389818805,517.8310029650702,997.3117600157376,3069.4028932024285,2479.057016123525,1193.9267254417905,446.4097470131496,4218.908169596611,790.6510482220776,3917.740808895158,2620.2574239556097,2620.2574239556097,3615.655403260331,926.4133575532712,1113.072001327986,179.07944272978898
331.56000524409615,974.2000484951744,2767.398073711004,679.4707107763572,1341.823860522653,465.7615340018024,2693.375274047576,2679.7036708327005,3436.5392206505744,2563.423070778642,3512.7491306016022,3611.9207529047135,2051.164351872891,1328.9700870243862,928.5136960175212,1523.4503250844143,2382.019974424365,825.7811916764913,939.532873648794,3287.1523397722995,1848.973275139027,2314.021637200597,2516.5313743053384,513.8550150098931,910.216268849562,726.2338971224272,950.3197133625432,3154.6817950751297,2445.763174450474,1213.2231396565944,379.5123762187736,4288.7949821805805,736.8565364794808,3864.274825894425,2692.047072117959,2692.047072117959,3540.788027761131,879.7381766890094,1124.4894681888109,128.07487344400738
350.1799772521981,1184.3113679629578,2755.9788619904566,665.4932074587678,1325.369650585438,602.642780901934,2749.737413370371,2734.154505262712,3279.950621603646,2701.830904738449,3572.611917132048,3629.295731371232,2040.2267461654465,1322.7113858216808,888.5189988481256,1530.8169794134612,2203.4767377818634,939.5005907039648,1089.510005912321,3068.483599514831,1514.9779592902132,2314.092113099586,2424.565425628537,494.2427557802614,1064.8864410696856,975.984404419796,901.370817094537,3249.8465616102894,2415.787618928019,1226.6896020840113,317.3487192549589,4335.063049644139,686.0777655689774,3842.7964371111766,2765.5516895309283,2765.5516895309283,3471.9983024912453,806.037276655524,1137.4486078083014,107.16101578677716
375.4039347172586,1402.4368502683333,2755.6504846605103,663.011992416061,1306.0303123090916,754.681184276461,2782.9619979410472,2793.7160756834364,3118.930966913424,2897.7847173505725,3636.660750653949,3632.796270396264,2035.479523147903,1315.0374175966454,837.8442326498148,1536.531835138815,2064.0312499354845,1065.61632220068,1248.27271938465,2867.751938435229,1243.7497352503528,2316.686604266298,2368.056977289932,476.5075079436565,1228.975369327838,1215.2129386580327,850.6933105365601,3351.600522344324,2386.644186882561,1232.9508422646077,262.1415927160715,4360.294278033558,636.9231542754271,3847.646454777633,2832.584538387712,2832.584538387712,3427.310906811999,706.9634179655516,1150.9017422906668,122.79700124483747
403.0420735658324,1617.7616902847155,2764.105779534688,668.3515847831986,1283.9432329398824,908.5759997329574,2793.021140975429,2858.011537858478,2947.677843777249,3132.230214693476,3705.570208607628,3628.584609421774,2042.3141935341616,1305.4529634125165,780.5415507967678,1540.8877710366835,1954.31413835532,1198.4177302248145,1407.7615421594328,2688.848954797212,1062.593179181623,2321.746565756425,2336.7836713478364,454.3266220515359,1408.7446987169692,1398.0177136329546,798.4327753501573,3454.1889723047507,2357.2942779945142,1231.6669468339137,214.18767125561223,4370.113343584062,587.9624457776085,3868.581009733406,2884.295334384621,2884.295334384621,3421.83584074534,594.1837532877214,1163.6282663700772,178.64886751147014
430.99964142461727,1821.2917635774368,2778.118976535824,677.7050440772173,1259.4605069598294,1053.4558636983816,2782.6004928341986,2926.6455834153626,2754.211035543256,3376.241784531794,3533.4040717801886,3622.472062009342,2062.479739806492,1293.4546778991628,722.06034541025,1543.7924264166186,1862.155427496731,1335.6922451162168,1559.5199066957953,2532.3582649573573,975.0768145346356,2329.182158380258,2318.4969410264694,424.8236586471801,1615.7538135525797,1494.7801606366363,744.5923799505504,3549.591843847594,2327.811343464792,1223.4931376244142,172.20244516256002,4371.261132321256,538.0884606357038,3894.9237290744377,2914.3867149229004,2914.3867149229004,3387.33328190269,486.0451886275164,1175.0412085080388,273.8820148062364
461.5299761713675,2004.945964163603,2794.5735565658447,687.4437850862871,1232.900642584748,1182.740599731611,2756.6229166980247,2999.481995348958,2530.9125745294323,3600.3986575167546,3614.627635327274,3618.8305928495774,2094.703925515869,1278.6764230717326,667.790641882654,1544.914467884097,1775.5395592282955,1478.7637916243984,1695.8670537048326,2395.847169552636,965.235521074616,2338.920049101119,2302.6694413740606,395.7782894321333,1859.592159316603,1497.5908908021515,689.1119533921185,3629.460191918184,2298.985739042276,1209.7491383105394,134.12099906189815,4369.8667063293,486.72823642669664,3918.3753105196806,2920.830589496261,2920.830589496261,3459.07050407727,403.11132275956106,1185.5643705964317,405.2920422735762
501.0425143848606,2160.60716552482,2811.2205833547014,694.6988757881704,1204.3979216690263,1293.43527051345,2721.1608528527136,3076.872820715816,2279.2825402556327,3781.455069871703,3701.0326732855847,3620.123818898566,2135.023341439788,1260.9635530744054,621.4994804585224,1543.8172617469918,1685.6741331306594,1631.196140757727,1811.1562133985608,2274.6344519346867,1006.0104600525332,2350.9366613932443,2282.46465823927,402.35234108346935,2135.8209711406107,1419.868094581479,632.0326570853904,3687.777680760573,2271.919357314271,1191.983400538032,99.3330607719779,4370.323263542014,433.80103415539065,3934.274980859508,2905.7902541730764,2905.7902541730764,3544.387289295264,361.8474234389614,1196.260531289528,575.0355409328695
557.3871609981272,2280.716484029093,2826.9673134437658,698.5122368237721,1173.9840481254678,1384.206795999248,2682.1271625276154,3159.7400939709687,2009.151676267396,3906.472250272903,3790.2758826486697,3626.5752877974414,2176.595951872203,1240.3924580451137,584.9116718543357,1540.1036044219204,1590.750772011766,1796.7261626346613,1902.642928796052,2162.7037763403805,1068.267280917275,2365.464029738002,2255.091167819776,505.33622176697554,2420.4798735771724,1290.5595621145092,573.6137446810412,3722.604298684979,2247.6522376215007,1171.5715667185898,72.79881539386747,4374.882247440282,379.6404292920295,3941.539118005333,2874.687213717246,2874.687213717246,3619.296216803217,368.9541182773976,1207.948627332759,794.2066875420928
636.4498933207651,2360.49811975938,2841.6985660412674,700.4160229472216,1141.800510224799,1453.9043003237018,2644.2271682647147,3249.214992075382,1735.9818698795457,3974.13051397087,3877.9696521554015,3634.4124358734593,2210.743359613182,1217.2098573497096,558.0240647724197,1533.5274674930165,1497.65361168224,1977.020116751352,1970.5453627114289,2053.654293220656,1127.7970838491724,2383.529714502035,2221.140241917633,750.9705879584815,2677.687923944455,1145.397312136065,514.3360723732346,3736.23335707775,2226.9120745334885,1149.4515991559697,67.59835600354336,4382.586650212648,325.3353432718925,3940.747080212718,2809.206559104281,2809.206559104281,3660.0205157904775,420.08923088095526,1220.217059657623,1073.523444291758
739.8903268516117,2400.037001063772,2855.8947602707253,703.390676436409,1108.1766135363923,1501.2608861858262,2610.493520552519,3345.964346245526,1477.1480620423945,3993.008072634854,3957.620553931082,3632.4121916076056,2230.098368605494,1191.7229800352766,539.8803970382849,1524.0173590557706,1418.632908681503,2169.6197680042524,2017.72351775692,1941.5945536234933,1169.098540665266,2406.986874760672,2183.3959248492843,1132.535494650501,2873.62258858653,1018.2209979254995,454.79089653815777,3734.0584715358814,2210.0551285762767,1126.016121009302,101.72163956095436,4385.30011455209,273.2461803239928,3921.864993654816,2762.667301978064,2762.667301978064,3647.8681370370487,502.9546257952911,1230.7826781194417,1411.8963708483304
864.7740990522514,2404.729689406639,2870.285299837674,716.2378354518519,1073.4897972402696,1525.8247147431566,2582.303170319506,3449.8450867224465,1247.3526945810736,3977.751543425192,4022.1225105854246,3601.137508851219,2231.878186113173,1164.19738078852,530.41463841306,1511.588504146827,1365.0911948849184,2367.088007935208,2049.5066697962934,1821.5201998594885,1185.946881915031,2437.331644845492,2145.426876341492,1592.0247776982728,2987.821630369468,934.6851523094886,395.5172772709148,3722.82620365832,2197.1452278569127,1101.1528337792863,190.55404223992923,4364.151046354968,226.92222415074548,3841.153216604646,2723.4539069145894,2723.4539069145894,3573.9077214937515,602.1551750335127,1235.7931870851194,1793.9120090475626
1004.7145576546548,2383.997651527405,2885.668510824393,768.1667940617424,1038.0026170337528,1529.715387375089,2564.4508436692213,3559.852770075844,1055.1340157361888,3944.643702823757,4066.1223373018097,3519.5576243618048,2218.825919069529,1134.7656873265382,531.7779821942024,1496.221530555628,1342.9443661827136,2557.979074142313,2073.587457035392,1689.3451304516257,1179.6542907550715,2474.4441643172745,2110.3234996857327,2049.0571798425767,3017.6582875758595,909.2882776419052,336.87687437400905,3708.938675787278,2188.0424419924466,1074.4493892851733,339.9593263490942,4293.936979676491,190.3972097085882,3625.570761284876,2696.035695538115,2696.035695538115,3441.433172699152,703.3567929583828,1231.4253831356257,2191.59288148431
1151.8605106130403,2348.973397975404,2902.805274008578,917.9939678099212,1001.7722635211878,1519.169150739221,2577.916705361524,3673.360263883113,902.9022101606668,3907.87843615017,4087.713159474645,3375.7717890761905,2197.506797335795,1103.4428344178828,546.6556763600245,1477.8286727988216,1351.2370503173224,2729.4912711284906,2099.6194244480494,1548.1679142889925,1156.2576098134775,2516.527706398664,2080.0750511110464,2431.5916598636336,2976.212401932462,945.1805804896072,278.95682342895725,3697.253640947827,2182.484911463662,1045.512788132803,543.8005327586736,4154.584783031916,167.2849047656705,3224.9664677793776,2681.813997846867,2681.813997846867,3264.3394709590475,795.8678623325961,1215.9274231103766,2566.9570002198207
1307.350090769049,2310.106417210752,2922.204802929027,1186.0445994221798,964.5784663897144,1504.48045036054,2660.3750398942666,3785.010829722573,789.7663838796495,3877.29622750688,4088.73117883844,3173.3413753920404,2175.2005178044683,1070.2688825059831,574.7322890459836,1456.2927162770786,1383.3344981245375,2871.196515985638,2138.099682168224,1425.02338423893,1123.6111007953923,2560.9984854687063,2055.674395714488,2695.856537381448,2886.1956166319587,1035.6645965420944,221.6470328111459,3689.396340251872,2180.189957024428,1014.220175105197,786.9617408763784,3940.446637547148,159.7417336561664,2658.14362253955,2679.817810935243,2679.817810935243,3061.7034943699487,874.27935675769,1190.4735921557171,2879.530720084236
1452.766932443094,2275.3581844259656,2943.944913015047,1561.6657560572164,926.005608672982,1497.700049370637,2839.890416350294,3887.272853122699,713.7856870459866,3807.193590063472,4073.856622468689,2929.5589925579,2156.8618387495053,1035.4142194778738,609.9227617225383,1431.5177799330936,1429.4925094185132,2977.9434560162144,2197.654829164742,1373.9023788810223,1088.7293205942487,2605.5233293823044,2037.4577823071093,2832.251918708773,2772.8914803788275,1166.3807557687894,165.2266295573977,3679.556196908393,2180.925906612991,980.7685060659188,1050.798651097009,3662.2555237775273,167.79861941548825,2007.0908945789995,2687.5759689904385,2687.5759689904385,2851.603529263891,939.3640972454572,1158.4179974157023,3098.078042343957
1588.1906453599895,2249.273055535933,2967.7251445931315,1987.573790565022,885.7226392113887,1509.144424491246,3109.1740339967955,3972.91791586419,672.1012971226235,3800.340904198036,4049.102916392259,2668.6843043890217,2143.589565889996,999.1702175985836,639.5740123856808,1401.9473064816357,1479.6851693977178,3049.7896011721505,2280.479047803273,1444.6234809249431,1055.5730929296865,2648.7204539865743,2025.312422737724,2859.851216549568,2658.2442669100487,1317.637046344567,111.1291081103434,3650.46550430125,2184.534857037318,945.5132219079912,1317.2862841479816,3343.107266904931,190.1026345646867,1378.1104158560254,2701.901775546208,2701.901775546208,2647.367767281469,997.2440992252432,1123.8721549834208,3209.597249122858
1710.4172712541065,2233.1150120987377,2993.05453001217,2390.324706513049,843.6844852989252,1544.5589611507753,3427.0094538660987,4037.536112777776,660.2185277134502,3802.641994284552,4020.295527929606,2414.7128678966524,2133.13576926451,961.849579281702,646.6264443747527,1360.5724138123348,1525.8441788612388,3089.434084582956,2378.8987655693654,1647.9692608619062,1024.4340875030448,2690.377651505683,2018.784642286676,2814.7078703182683,2557.265184806713,1466.997124119914,62.06439420688116,3576.638254752337,2190.9449822624347,908.675706366826,1571.3753760199763,3011.210786279681,225.8136198273121,862.5449740078725,2719.682469749017,2719.682469749017,2456.8309893350506,1056.1969299819666,1090.3816967447246,3221.335319722739
1818.0585853381488,2225.912336416755,3018.3926947730142,2707.6646529667823,800.15120422112,1604.1393183476662,3738.079059100736,4076.234650184909,671.8341699094319,3810.29484880704,3991.9610897291705,2186.5294994657525,2121.607997343554,923.61302673743,614.7060236120321,1294.814559142192,1563.0324993779352,3099.932711192896,2476.843860034298,1950.963356727252,993.6019984458768,2731.2499075511555,2017.2225832879265,2737.083993971768,2477.052240783989,1592.4946798257452,22.13069473233304,3435.4830955408934,2200.1796623641453,870.1801499943126,1802.356632373676,2691.8804292809245,275.9845865483005,512.5892033931896,2738.513298383756,2738.513298383756,2283.1236598115665,1122.5808867808262,1060.0290955135292,3156.3912106397884
1911.710298871168,2225.6888506114947,3038.254622045194,2905.2073281628727,755.6560941800124,1683.6735115388983,3993.684184546932,4071.425481023517,699.4939668519721,3818.8849965220015,3966.804834023358,1995.8764595560256,2105.437101109893,884.3550235411815,534.7746387942962,1195.1683466344173,1589.494881157509,3084.263432186772,2555.535797064241,2295.930256408601,961.61830171954,2772.6097181024297,2019.9308697663528,2661.2759528851657,2417.944564667978,1676.2182520614217,-1.4749326781275158,3218.366557738751,2212.3217457320525,829.7957397717555,2004.3685226301925,2401.70939618347,343.78037345858274,335.47564042056274,2757.031278213537,2757.031278213537,2125.842771188541,1198.61613910218,1033.1802615292308,3045.662810016824
1993.151553019551,2230.3098285115584,3042.248962808685,2980.194313149329,710.956345812358,1776.7552520004706,4164.913223821104,3990.337093746173,735.732908853978,3821.7291918539822,3945.742680757272,1846.15010268815,2082.956535949313,843.8057552443754,410.7576871105007,1063.795874854649,1605.9312529406986,3045.962251006536,2611.170816559348,2624.325828488094,928.2510337556062,2815.819612984191,2026.2305783988304,2609.908521163353,2375.818500446997,1706.7733885193918,3.627187389077335,2934.657520164459,2227.3983840172555,787.396394649054,2176.278311821971,2147.000032672952,434.3046124816056,302.0610918541445,2774.938951278104,2774.938951278104,1982.7972121887035,1282.976484529175,1008.8698475929552,2919.4141539033194
2064.774774704512,2237.9288052830325,3020.5940880957032,2955.1594929995044,667.0715105588145,1876.597054619836,4246.279895695554,3807.6595161618034,774.2811598760945,3807.2076263922486,3928.320610999354,1731.4070928951571,2054.8715361130285,801.7594491498428,260.0215363998413,914.154757461979,1614.49367237227,2989.630189932675,2619.722266062139,2894.327490724093,894.2193028559841,2862.095577258181,2035.5120107010207,2592.728505813773,2344.563722424595,1679.5124326157757,53.85946050818916,2608.0153406110794,2245.265008071594,743.1067109161102,2321.1474523791867,1926.2903984527447,554.2301992312223,362.6198527562083,2792.7529606070875,2792.7529606070875,1852.5014904192485,1372.7152731806625,985.5151843232852,2801.114188164121
2129.8903542497774,2247.2695945359305,2971.933731770976,2866.467785657729,625.7124315903914,1977.4603999095,4251.721394384966,3529.709780889678,810.9740929758916,3759.8666346397495,3913.307015657425,1639.711427633024,2023.615730149925,758.2154935556773,107.36288048902792,764.393604770861,1617.8173247394484,2920.849275509769,2604.3605388560336,3088.116703029328,860.513091768732,2912.3809598524213,2047.362578703756,2608.70931581836,2318.1925636069777,1595.770064643642,164.64975486661135,2268.2358620353248,2265.648510998602,697.2734754248249,2445.1596383954743,1735.658657703827,710.6468432101835,463.3172779073816,2811.391545468997,2811.391545468997,1735.592051294067,1464.9158075689004,953.4994920335604,2704.656791766045
2192.986462776623,2257.911831029257,2906.353508615949,2752.482630389949,589.9780790325503,2076.266402048101,4206.467630820729,3194.3245046655447,843.8409561740946,3666.553617147652,3898.5786024476974,1561.5103179588723,1992.3117349821464,713.3971109697511,-23.38647847301081,630.5009118938976,1618.2220426838308,2845.5466422245813,2584.142703435164,3210.08326649583,828.7727036751774,2967.236964880313,2061.65075832688,2649.922762033236,2292.267408483781,1462.760847318538,344.4724255172873,1942.5624877534924,2288.314237561327,650.288478335568,2556.1127337988964,1574.1536792364648,909.4736700052364,559.3220530231863,2831.7916771746054,2831.7916771746054,1632.7401336131134,1557.5398849817311,934.6848627315384,2634.558789524943
2259.2231611439656,2270.3284535029525,2842.7014664163,2644.564974612891,564.5303150972879,2173.5761431176225,4138.269651828421,2852.791112624368,872.2749499913366,3522.85738235514,3878.8533016995098,1495.2907551197443,1963.8592966359583,667.7019078020951,-114.92321177590064,522.0685029393069,1617.2242640445174,2769.0977096455194,2576.107365882623,3279.714968469207,803.8194657737347,3026.737085631551,2078.475421537522,2705.7795651512806,2264.4656277645545,1293.6730389733386,590.8235913709818,1649.498852891293,2313.142337992296,602.3825108368719,2661.181328921356,1445.6023633037046,1154.6979667910214,622.2498881381159,2854.66279840046,2854.66279840046,1540.8815543207857,1649.4677800767,913.7026434970662,2588.13364169182
2332.967928467488,2285.3828275492324,2803.200930326807,2562.3217034866434,554.6876280431695,2272.308657049159,4070.496191336897,2550.3487543629185,896.0911490425526,3335.6816966234182,3843.012572509036,1445.8071404343848,1940.329588580192,621.5586031432324,-157.38626151163226,441.55804150888366,1615.4296627616154,2695.5173831785914,2590.00192161548,3322.578128737744,795.3176737475073,3090.5123504714443,2098.0001915530247,2766.58395212577,2234.4059523452192,1106.8995615096435,889.4538485653827,1396.62511610064,2343.7723912894594,553.5224784179507,2763.5604830546413,1356.0898438436593,1447.7070546467648,641.4231337698263,2880.3468340829186,2880.3468340829186,1452.6669474647229,1740.0559340091525,890.5557412176718,2558.590829846617
2415.420712758636,2303.6880626640286,2807.3570676760914,2513.039640434568,564.914171531811,2373.941902186789,4018.1289188452592,2314.394050055604,915.1280435669846,3121.4406550385493,3776.158103766636,1418.5319546202363,1922.7267173718164,575.1945914899973,-146.71372997701155,387.0084666315363,1612.6825938639154,2626.9984909126324,2627.7458979485937,3361.368034967946,814.6084882381442,3158.13778127733,2120.29732974262,2825.7654366210268,2203.075031606316,924.5336379692236,1217.8801759642392,1182.709889054452,2397.340609312743,503.4704324171771,2859.8504479258418,1310.2143610923963,1783.571478383204,620.4331362222329,2908.8120167882207,2908.8120167882207,1360.3768800718913,1828.8872008146964,866.0596470522462,2538.059998694533
2502.679573579561,2325.367728755453,2865.576598051154,2494.135888808331,597.791378077256,2474.938494977539,3985.8499481907056,2152.144406473986,929.2950422576668,2900.9903651836803,3666.698874708366,1415.0726519752625,1911.1152188101253,528.4813799927367,-83.41102801448324,355.97199278294784,1608.3220351684497,2564.086871033186,2685.7890964920275,3409.287598448562,868.7697176315205,3229.508859356027,2145.394370145485,2880.598000876053,2172.1560057225965,770.3846970321888,1552.0115189792768,1003.965481879675,2505.3936239452178,451.9510252374214,2937.66938163485,1308.2447529651422,2144.587366095042,571.4284364834698,2939.7956268056373,2939.7956268056373,1261.224222712758,1916.053744894676,843.0039164353441,2519.856933479622
2586.1089093702176,2350.1687165014832,2974.5650560131103,2497.058617711803,653.7097010776679,2566.7624257656744,3967.048472502737,2054.482325665037,938.7289344679536,2693.5358979931843,3512.199902597462,1431.612535690735,1904.9806977428896,481.059037176281,27.72762598969075,347.4942084277084,1601.5164287606458,2506.4116581254057,2752.689767256796,3468.3370271103704,956.6908778558418,3304.772587768045,2173.433853279033,2931.6072307419354,2143.426669739225,667.2281619146313,1870.008048426944,861.1638272416387,2694.047476787477,398.8138889076299,2984.62822268077,1344.4098942982755,2498.102064882737,633.6650827434094,2973.0447026210686,2973.0447026210686,1160.08836095114,2002.6540029124608,826.5367466175826,2499.7525734734486
2655.193548334469,2377.6630274156228,3118.1590608475312,2511.330644184551,730.6625397834198,2639.376318054645,3945.1057551170784,2002.281104443815,943.8441201063522,2512.050102759188,3320.0825766244943,1460.186063431102,1903.6531751409989,432.6886134079916,178.39665332812774,361.699005092473,1591.598539848982,2453.328475075009,2824.9108914138224,3532.410823899866,1069.0732046694995,3384.0719085058363,2204.6143038512905,2981.2742419649594,2118.292649911163,633.5760285636015,2151.0447511347634,761.1018158472311,2962.8070023969967,344.1528376014669,3000.1581858595086,1407.2372426767622,2804.1998987494044,552.9146242881791,3008.6853298770893,3008.6853298770893,1067.5795192860826,2090.9578428166874,821.9713247029692,2476.2354063200164
2701.2716649606964,2407.4378570555245,3273.60793386588,2527.749030683577,824.5724571153987,2685.351304528984,3898.829236168736,1973.0535741109009,943.4213583229996,2360.933267154528,3104.706810856612,1490.972218470395,1906.736262636404,383.6784433200746,358.39914531618456,398.5614294273482,1578.21763723433,2404.072593233547,2896.508233352305,3592.341555506234,1191.847637461123,3467.518238900244,2297.3022120862606,3032.719830676397,2097.5060333415568,680.8909162293469,2375.320305225295,710.951837871186,3282.334652587873,288.3116009484065,2983.788569208321,1482.3534319713049,3029.1294210680107,476.1365339382489,3047.4796229285807,3047.4796229285807,995.0613283331892,2184.10112097233,832.0951646320873,2449.958231981069
2720.1554431374734,2439.209455631216,3419.25573884144,2540.1874738587608,930.8794134294706,2702.3437841124137,3810.089570790002,1946.359407849962,953.5238009101732,2235.039047978282,2883.292419779604,1514.4987798973214,1914.337037374812,335.34285421419054,556.8402839787689,456.8167279106626,1561.2705982614289,2357.668894754343,2964.438357006129,3640.2350902183966,1311.2350417308332,3555.365030758944,2324.7572384191985,3088.6247603519623,2081.15871987824,811.6927367115561,2528.606294183964,711.7705823078918,3606.957246682567,231.7273451208714,2940.567827745543,1556.2068843750849,3155.76751250927,406.4474103313137,3090.4268794792674,3090.4268794792674,950.0601288167896,2285.476872619958,857.4850187269903,2422.8215905598827
2712.586788304113,2472.801929940186,3540.1261046278405,2546.068585469179,1045.8683086784613,2693.3760796214024,3670.029044855049,1907.3547297654893,986.3979428955408,2120.6495902983133,2672.055295715423,1524.3528913459677,1926.876997460359,290.15706533425123,762.6201925957218,533.7023989780325,1540.7698530260193,2313.268026848033,3028.794450160613,3671.9233808690615,1418.2994206740652,3647.8101347529328,2354.382594102932,3150.5273905974623,2068.936000796446,1018.619581265785,2606.876456293413,756.4580502399658,3891.0839615114114,174.93067589293287,2879.054549973995,1618.9158749252065,3186.6947615949443,346.5471066946261,3137.9874817355494,3137.9874817355494,934.088100529897,2397.6217121013324,899.657697823239,2538.819286109064
2683.239700583249,2508.069532943373,3630.2138960389657,2545.870363614624,1166.1172585996408,2665.4209089774886,3481.951723969565,1848.8140075384983,1053.6160189177722,2001.10162507704,2483.292337594281,1519.6462343664173,1944.6873062286609,251.15019795772832,965.2698715400448,625.9295934976603,1516.2766109830318,2270.995515415141,3092.1204585740666,3687.4635575300745,1511.5783669207462,3743.70676872054,2385.7925891607138,3218.724251685808,2060.424388806859,1284.75220000725,2617.2982431428445,831.87915511296,4102.613038777077,119.06990285985398,2808.812445604595,1665.4614084865216,3140.662515363665,299.35255171187464,3189.9155774659275,3189.9155774659275,942.9786106443134,2520.585391972357,963.5917515770028,2509.710575171257
2639.4976472873414,2544.9093992768467,3691.796685062272,2542.0294190617747,1287.421831113245,2627.15861118304,3260.274919025617,1771.436124568284,1153.7862232946727,1865.5150861194088,2323.4772922093066,1505.01180363325,1967.6753791628448,220.79520621533288,1104.4025789284417,730.6261019472952,1485.622309161509,2232.3213564340144,3158.152168555001,3690.2200319696094,1597.3179933649417,3838.9200591164063,2418.8525584378945,3292.714295500793,2055.281375917604,1585.8058143015696,2575.7338225917747,922.7106263210536,4229.329342036195,67.56735164443808,2738.2527581798818,1695.3591584306064,3045.3855102506423,267.91509303681323,3245.7449104989555,3245.7449104989555,968.8537991997669,2650.274837352492,1056.9019774014605,2484.797291469444
2590.0277462375234,2583.3559928378345,3732.915016970419,2537.666745180637,1404.5956431798054,2586.7991975126283,3025.953537243998,1682.3094442480965,1273.7448348988885,1713.5584911860965,2192.4680589492305,1488.0451148744603,1995.2018037980647,200.13466333718333,1289.368850220554,844.6821996159765,1495.509770747317,2199.458846818048,3230.3853804396263,3685.269374457872,1687.5748674197107,3926.4393047480376,2453.641130139089,3371.8481334224502,2053.2600818672386,1894.0730611634613,2502.3462345285807,1015.1162075844534,4278.003696206881,29.435239901040404,2673.372700458658,1711.3479546057995,2929.7418026012188,256.30560836319137,3305.258598161121,3305.258598161121,1002.6529711623846,2777.456427940344,1185.934111232183,2464.4680588191104
2542.9599755780227,2623.581145035314,3764.199138527764,2535.567946824,1511.312586963585,2550.57175004109,2800.377885489102,1592.5416772089816,1395.5194859926703,1553.4372638127631,2084.139254384054,1476.1023933461115,2026.281709319706,188.83933502441664,1479.8580226540191,963.1739713870352,1426.4037249984754,2174.4320913993747,3311.040908782348,3677.790944660703,1797.2436151505292,3998.7149997796528,2490.36305790342,3455.7354213165613,2054.1852497245245,2182.5602415304293,2416.922341059967,1099.2182775459196,4268.523654784956,20.858448024832114,2617.402734292325,1717.6704717765704,2817.6345761548364,270.9425242517977,3368.692051513016,3368.692051513016,1036.3041792843594,2889.2368704703667,1351.5442072681517,2448.302228062525
2504.282367110148,2665.759710077383,3795.859739113203,2537.6632624756044,1599.9185336524702,2522.0341258963776,2600.4472052574765,1514.6268118919993,1502.9165622317655,1397.1750693821791,1987.9774288866947,1473.9593357640451,2059.984584874821,186.7075323329234,1683.5200708366783,1078.7336867508886,1316.265855935464,2158.4022080712466,3400.880169864597,3671.881567279114,1941.076021555659,4050.431060225383,2529.359678440201,3543.895739144044,2057.927918561432,2428.3107318598013,2335.1592976118395,1170.030446380902,4226.145486458532,60.20105783946133,2571.015982790971,1718.539589134044,2724.5587300791867,321.3167714811302,3436.6589801800665,3436.6589801800665,1064.0505651707726,2973.8325548921403,1547.7036818429428,2435.330866687482
2477.048557653303,2709.9765564833715,3835.498153984992,2544.924753242941,1662.7446033335236,2502.16876329634,2436.1652781582407,1459.3332873968477,1585.7183984840035,1257.0982702000842,1891.0289364644352,1482.8667159007675,2095.725948569644,195.68918373517812,1893.4115991114568,1182.5569779730004,1158.005327139992,2151.394006348927,3499.3482225174453,3669.973136044662,2130.72568239165,4080.093392242205,2571.159488368571,3634.461008668228,2064.3777469264583,2615.4911939401563,2266.695205769317,1226.968487926546,4174.501709787792,159.088678900162,2532.920515216972,1717.1847282074689,2656.8925106191755,419.7990243093875,3509.823351212528,3509.823351212528,1082.9547076123802,3025.418145573879,1763.697949994127,2424.5775028880835
2461.4751669363973,2756.2397652240584,3887.156711003821,2557.444007972233,1695.014510401487,2490.068131009853,2310.3003281816345,1432.865587887425,1640.9064634031697,1143.8984919180857,1780.4680356407616,1500.6793825747154,2133.345758810172,219.9838677510129,2090.5237079452354,1266.713794527785,963.0284771469296,2152.41543927605,3603.809359729884,3672.048226698205,2372.179847485725,4090.0591371220607,2616.454787354748,3723.0084186768754,2073.447230388564,2738.04716715608,2215.0729509148064,1272.4320777704593,4130.957005063034,316.6968919297292,2500.754037253322,1715.4839959720316,2613.382405707257,580.5645545468506,3588.561330621737,3588.561330621737,1092.730254651318,3045.66337486402,1987.8912350619355,2415.491020094284
2455.693766709093,2804.502630634908,3951.509217366212,2574.6326613536185,1697.3123535387615,2483.8233438742213,2219.355897086854,1435.5861003526425,1670.8873115390334,1064.9962290350334,1647.13483366357,1522.4224023681215,2173.0511446669825,263.31547642790247,2253.6265537203903,1326.9109640305608,757.5194756761798,2159.900395301197,3708.405488897278,3673.0146716220497,2663.872619563322,4085.40134192178,2665.984767148549,3803.175605446207,2085.1683432609098,2800.353202807337,2179.168650516557,1310.1298858831562,4104.78472216507,520.3263199687337,2472.026467808234,1714.0121749759735,2587.946920150872,817.718504769068,3672.655897220861,3672.655897220861,1095.010343764175,3042.123997554108,2210.552427487109,2408.0497719848354
2456.817588072984,2854.6902409636496,4026.359049227201,2595.532955516159,1676.007236478375,2481.332869143498,2155.287385605282,1462.6142619232603,1679.9531302592684,1022.9855907555856,1488.984324403982,1541.6158292078271,2215.2658454050584,325.7857477638481,2368.0066726426726,1364.3808108425117,571.0860429556415,2172.248201770855,3804.757432049655,3659.858038451612,2993.749433521364,4072.27269565794,2720.3699624140418,3868.912828954745,2099.830200911326,2815.0445907792287,2155.205940501878,1343.665025527136,4097.7631697613015,751.3895293774171,2444.8149068634084,1712.3361262576432,2572.702899097168,1141.7055372634086,3760.3694014090497,3760.3694014090497,1092.322082722572,3017.753438793889,2424.6792538349496,2402.7729553602207
2461.942789178528,2906.8044635823626,4106.6002415492585,2619.1482736591825,1641.9795350164773,2480.8878675047404,2107.3861570512345,1505.7677421545095,1671.174428835409,1015.0983206489212,1312.330530264594,1552.629654816703,2260.4286507149154,403.0624164050416,2429.716156214053,1385.9533496857257,426.4902094878066,2188.186007427255,3884.7336909927394,3613.979557498561,3335.9484347082,4056.374741717197,2779.9641442641714,3916.08410432227,2117.9311827533675,2797.638267703945,2138.6236617864097,1375.6513647416316,4105.59247140853,993.4273012623308,2418.0671026501427,1709.4138016452582,2560.399863995417,1551.7100360566392,3847.1962459685474,3847.1962459685474,1087.102687231294,2909.7727256006715,2624.8550653941747,2400.588208541275
2468.813321334744,2961.1133343283573,4184.31363548546,2644.698998235942,1608.6494247069186,2481.428324513958,2064.3311897558224,1555.992558418135,1645.2924379706114,1034.151188712614,1129.9550640705645,1552.622383662827,2308.8249587239548,487.85082421770335,2445.2277425133434,1402.2959600106803,334.1716559127442,2206.880960549497,3943.2339923669488,3519.5578478008065,3652.8597641982055,4041.9186584861527,2844.853311070924,3941.326001528239,2139.881409235604,2757.9263634751337,2125.452269704353,1407.411862974142,4117.063510899418,1237.353833772877,2391.577558933122,1704.01638522387,2545.98025299704,2026.199372298028,3926.2056530184855,3926.2056530184855,1081.0094051021588,2745.861822967291,2804.5777472922045,2402.3479331928493
2476.119241596105,3018.26089830785,4250.379573481539,2671.690299603632,1589.3425207384078,2482.517328904637,2016.413959364845,1605.4108398544956,1601.816953043551,1070.5398023810071,957.150880582589,1541.8309599510785,2360.508444105162,572.2400436778564,2428.058726590716,1424.9696652894725,291.9155558137993,2227.852211088145,3979.4894095087216,3371.5530317831817,3905.221757533624,4031.20908865582,2915.0084321873323,3939.599639216244,2165.7436952376306,2693.365908947139,2113.066932572171,1439.1431723616452,4111.155835380107,1481.700420174485,2365.7859892423203,1694.9138650080602,2527.2018459192404,2521.236047581009,3990.388086093354,3990.388086093354,1074.6938457758542,2479.0607632912825,2953.8512722631403,2408.3304936276404
2483.500002973205,3078.971255493185,4297.235297504368,2699.8415921637297,1593.807740736323,2484.194428705392,1957.012246984704,1648.5147696844988,1541.4679631777944,1114.468815470669,807.877327812017,1522.666754636042,2415.3594814828703,650.569629993809,2394.297753322869,1463.525524176236,288.1918305712534,2250.8297808534267,3996.731538232182,3178.053820344994,4064.7173194082297,4024.776913695484,2990.3931709071903,3904.557794597455,2195.214989445968,2591.596035081728,2100.3830089691264,1470.3046090893747,4059.111157178933,1729.813448456067,2341.4698776756227,1680.6044634651907,2504.382596876473,2982.054031066609,4035.1912715978224,4035.1912715978224,1068.0066326533838,2174.925826054985,3059.4479327728995,2418.160957742158
2491.306406797423,3143.5345708942914,4321.066942933247,2729.0134238827845,1624.9121056151562,2486.8010286693675,1882.8276958750475,1682.4871311653028,1468.2448958513928,1157.7577309582712,692.4363813686402,1498.4244820292456,2473.253972795745,722.1640816048491,2358.585551269083,1524.0163003580176,307.0974660592399,2275.745029239546,4000.7657383016185,2957.022847221674,4121.862877119063,4021.8682341973526,3070.930232864412,3832.644389429776,2227.78306008041,2440.30137724709,2087.7459138811846,1499.979818870611,3934.8461991111344,1985.916771176712,2319.419407503984,1659.28900354531,2479.547197990323,3360.9180766105883,4059.796184825239,4059.796184825239,1060.3641317062866,1936.058066103448,3107.579796475289,2431.0851789380445
2500.215905285654,3211.7926943580883,4322.453873501889,2759.161982337769,1677.3798419030727,2490.8041550061425,1793.693347088043,1706.8720255632393,1389.248184794568,1194.9080101557574,616.2260330930117,1472.0733876216705,2534.2059078040606,791.7628655444764,2331.448263380817,1608.965695186767,333.0694281791498,2302.789767337761,3998.173072882633,2729.995215918789,4086.59364880014,4020.642401823609,3156.4050933909443,3727.251158836806,2262.958814709044,2236.696395139013,2076.6009238649503,1527.177857804756,3725.71794828856,2248.970879832189,2300.23566456514,1629.7261541686246,2455.366677508614,3630.7166628053255,4066.933421253915,4066.933421253915,1051.032675559794,1833.999021348268,3086.380361456082,2445.5630545679533
2510.8947789413173,3283.5751219446265,4305.578885417561,2790.390911252613,1739.726055198761,2496.6443621479184,1692.4446755575134,1722.894463233551,1312.4232519414518,1223.3440964064162,579.0650653396372,1445.471241570252,2598.4192789084664,866.5721070656521,2318.273514255122,1717.5878172905454,354.19662608924386,2332.3549639061903,3994.7484588000825,2515.4751900992014,3982.984529659309,4017.046811646365,3246.583661621683,3602.024430321145,2300.4773825763896,1992.2064960492764,2090.739195988994,1551.105373810411,3436.027714343814,2506.382174974128,2284.270431704821,1592.1141246599836,2434.2415560139616,3789.4433397129496,4061.6846988641632,4061.6846988641632,1039.3311473815002,1879.1148988849104,2987.227544784948,2456.9998256900585
2523.7920879893054,3358.9063064038446,4275.307395400114,2823.064577659232,1798.5368808553503,2504.6223990899707,1584.2341900261822,1732.6300433242916,1244.7269857074148,1242.9321614387904,575.5387598152154,1419.2052414326035,2666.2016304410586,951.750735204378,2319.7663743954354,1845.7148094928527,363.7068189402037,2365.77085555769,3994.526296815484,2323.394461382813,3841.122730665664,4002.839804235408,3341.3665005514667,3484.74034128099,2340.410213174292,1731.493323595887,2078.824693915867,1571.3136136263452,3084.1407886924685,2734.529325035938,2271.625727499993,1548.073632415592,2417.7547912752675,3856.297866955554,4049.90872609004,4049.90872609004,1024.82073337177,2029.9988677454064,2805.855897759968,2458.540111833229
2539.054145514927,3438.028803443716,4166.024755797507,2857.820506652125,1845.2718142677984,2514.8378766826854,1474.9887995228491,1738.2057410048003,1191.795884272968,1255.106854402457,596.5891890933492,1392.9498264221174,2737.696949648276,1047.0209855186793,2333.340504418878,1986.0686758884349,359.810999133171,2407.609397123203,3999.476958737414,2151.76431955879,3689.336037183595,3965.001082796544,3439.924762454485,3413.1890636397,2383.194895624937,1486.7766234005912,2072.870409621776,1587.679888241459,2696.6141747036563,2907.509739947942,2262.191888397785,1499.9555005842512,2406.552438319477,3862.795692070743,4036.8415875434257,4036.8415875434257,1007.384772400213,2220.021507439856,2543.795300388328,2450.9721323244494
2556.679587554889,3521.495703921826,4058.9888385900304,2895.497579970096,1885.576496300567,2527.2195545888617,1370.0009211911597,1741.23688798919,1157.6947296249434,1261.986986400996,631.8369120866068,1365.9254212569317,2812.7175893302524,1146.232439170771,2354.79432186186,2129.7903797917825,345.5196791747378,2465.950415110461,4009.19829768257,1989.2635953733584,3548.9401675293902,3887.930705617289,3538.972764518734,3416.991160093824,2429.510819511416,1290.008503443033,2072.994409263117,1600.2969240813013,2301.3608645813,3007.4715218168885,2255.747536914848,1450.0363953630497,2401.3947853617315,3842.850940931744,4026.19992039277,4026.19992039277,987.1198406517036,2384.487553932297,2210.069704359576,2450.1830009498767
2576.7719351428545,3609.803222682693,3827.7130677245095,2936.981503301826,1940.7314476206168,2541.631826151632,1273.6865007940428,1742.572676018263,1144.09176480884,1265.681609643424,671.8112410554652,1337.172322708226,2890.974924548242,1240.5118771791008,2379.9139649083418,2268.514979608331,331.1402143880712,2547.574238018047,4019.239702782057,1823.986773559307,3432.058234680524,3758.2408542518833,3632.258204096528,3500.899747327761,2480.0246392529693,1165.8546884386055,2078.6686590463887,1609.3452018571115,1922.4622755519072,3030.559366798698,2252.06434394446,1399.9336667126267,2405.7625255089392,3824.94484851436,4019.876353907994,4019.876353907994,964.1751481985428,2479.1879023059664,1822.4685406396547,2477.835388465985
2599.515505532245,3702.642101029379,3430.5534854054,2982.9244423101027,2032.7991399012187,2557.9164198664507,1190.1939310529165,1742.3123831125447,1149.7110190520384,1267.7874610930205,709.4516389791843,1305.7466717001384,2972.46787828823,1323.5628795382934,2405.68266757833,2394.703220240444,337.91975846264586,2652.8423359516432,4019.0085773697374,1650.6859081272594,3342.0508566663507,3570.5780091007514,3712.326604539213,3644.486553067104,2535.1538181499845,1127.8047169805563,2089.031678660507,1615.0004471537588,1579.4179532407154,2987.001694176532,2250.944509494652,1350.3594259702234,2426.4304369523547,3827.7950328712095,4017.803812930953,4017.803812930953,938.7094682060022,2487.7672695813044,1407.516666722732,2545.859092540802
2624.9655994105706,3760.448953079597,2889.251134348393,3033.490552809652,2167.160322387113,2575.866830889087,1129.206209179541,1740.0086995310471,1170.6464040620044,1269.0988500190174,740.6851724890389,1270.9307886935455,3057.6002285436703,1395.9003293252504,2430.7147342306744,2500.5242518465584,396.35033427186136,2775.45939481036,3993.450787407378,1471.656891370827,3275.6890699614305,3331.4828277651177,3773.2566031474025,3813.646327633034,2594.9373772056856,1178.3583285567556,2103.134388076273,1617.407697990794,1289.3203034960038,2896.735013417268,2252.2394791451056,1301.1820355702407,2469.1306531132354,3859.2595598437615,4016.857139703308,4016.857139703308,910.973735757956,2419.1504397894114,998.7530002849276,2651.021778131899
