0,1,2,3,4,5,6,7,8,9,10,11,12,13,14,15,16,17,18,19,20,21,22,23,24,25,26,27,28,29,30,31,32,33,34,35,36,37,38,39,40,41,42,43
1829.9933568456104,2517.3544466134776,1368.6566357016177,349.17308106108044,1465.1473448250488,4169.747971206866,1901.721837030499,2823.204831816922,3288.1942478309447,2398.8732547586287,2100.2739800291088,895.7705364020676,2623.045032775453,3600.6421734122187,1330.1717084090312,2299.982588093267,1051.094743772765,2270.029837542529,2764.282474517644,3285.455318832081,2135.712753325715,4057.818634393595,1027.1484069562125,3941.9159276918153,3606.05739119052,1461.0402176331588,2529.991364289492,1664.2534706590732,1864.0123230683048,750.3841832945425,2516.8538106281303,2527.792141856164,3352.259251876341,3072.4357352716743,3941.9159276918153,1814.3775664262253,2553.5420411674286,3226.9812613835456,2672.4271725009057,2561.598807487724,3346.9480962434604,2322.862694061832,915.302503396425,2758.6781456251647
1621.7082718346755,2479.362697525265,1340.573217512096,304.03431920826256,1310.3989836697956,4167.383547889564,1857.264241339712,2890.928505235612,3062.415114384464,2201.55332386119,2109.790498347323,856.4289494679383,2672.5664421065167,3682.809518880955,1201.06853051116,2252.220937553764,1055.2349655689727,2247.0978790000336,2834.352220876951,3184.2568718578204,1898.841772697563,4126.712077993221,1138.0048174645915,3769.6107030308312,3667.0921241724864,1425.331825902586,2530.775576014836,1678.9896850544549,1961.258734456913,684.909529116643,2558.010659057931,2640.570349602299,3166.9090145785067,3094.2773913621086,3769.6107030308312,1947.4707284416247,2582.971769721661,3362.539788990958,2695.5903057097185,2539.3753096490755,3413.1328734109484,2314.59565110666,877.4810430798448,2788.8130123250776
1452.683772692105,2455.9759545062534,1312.1689106086524,258.75659909166666,1126.0347051382614,4153.134496056814,1805.65432632372,2964.1744315799733,2849.3469190395404,2031.316928488268,2131.002449798679,815.912403946832,2683.4726701494114,3754.201454093551,1095.4299265256336,2213.087896001505,1057.364281997763,2233.154556735342,2879.042430197452,3100.603250229875,1687.1945392857392,4155.510148451278,1264.7874583556754,3560.4802974239806,3732.343756661925,1376.5096693016917,2533.770599961136,1693.4549970093085,2057.064821339187,645.813486732299,2608.716045674444,2762.81757841452,2978.106638521226,3118.107798403823,3560.4802974239806,2122.459636845345,2595.004802513671,3500.996493060624,2718.822616897773,2500.2380781997813,3484.884829603612,2309.381541820129,838.9371353186632,2820.6945108168884
1337.3323979398658,2441.0540896119287,1284.686765833132,208.5401623105652,941.5324725448384,4132.01943811311,1738.6878883257598,3042.625421455884,2665.5893851685746,1903.599029826482,2154.677735321153,774.3349124548422,2673.295690394514,3808.702139335782,1023.8777683090808,2179.969653658905,1057.1815113686962,2228.6837091019747,2892.542082224943,3034.1031527724213,1505.3307126525854,4150.230120864278,1387.0507967536764,3331.2163194772115,3801.575360673852,1311.5589925471347,2538.08627622062,1708.0562452596266,2143.118509090737,629.2345722646362,2666.312899580272,2876.174467225539,2796.1365121999497,3144.2547142043336,3331.2163194772115,2321.384555984048,2594.344085666993,3629.714813664421,2742.515851490248,2450.5889356053303,3561.8741177889874,2307.369260613508,800.1528341181468,2854.497460755348
1279.170215226524,2429.193427170941,1258.129678524328,152.9610410744267,787.3930300995085,4102.728297272195,1655.013307260847,3125.365280544696,2516.9278066356565,1818.5616009780947,2174.738856250281,731.6077313433107,2661.9949900861807,3842.5198737855926,991.7058953949,2150.4208944805696,1054.3857793608236,2232.430382938794,2875.8426403527683,2977.274640816629,1356.808476120807,4121.607518448678,1483.278832307309,3101.01699837472,3874.561035342887,1234.4377071800668,2543.5468615227965,1721.8141540752367,2213.445508056257,628.5466775520699,2727.1153085105825,2962.108938740457,2629.413016051393,3172.989445017584,3101.01699837472,2568.528417523116,2585.8593073709585,3737.00658002766,2767.305226098377,2397.3221935487472,3642.6152063852287,2308.569387240156,761.3290086970633,2890.1060777563384
1271.1412052135347,2417.5811969178444,1231.726321474785,95.34342604518292,686.3689585774287,4053.946677442808,1558.296821870324,3211.354313257946,2399.30000946923,1765.6533808104614,2188.666001769141,687.5716677324654,2667.6399739939634,3872.963485200056,997.4615279251212,2122.762570707863,1048.788054283414,2242.2749091035644,2836.190302070414,2918.768090917056,1242.150233111146,4081.5574620400334,1537.7578447325943,2886.0225219469016,3951.246533327872,1156.3696927532128,2550.502176722673,1732.376110108285,2266.831885818911,636.2487815612378,2788.100654199673,3008.0372143854083,2483.516260252415,3204.5092425325734,2886.0225219469016,2759.4050433004704,2574.197855833646,3815.383442608439,2793.998871763611,2346.258955866489,3723.260292179554,2312.8450111440875,722.3876713011118,2927.2196177255246
1299.0038844217795,2408.777609294372,1204.4899241211365,40.82413906965576,696.8718104079494,3969.375668191076,1453.6443584947078,3299.921202816341,2303.7643484107,1729.5963470029735,2196.8890575734995,642.1535423263006,2703.863154335648,3836.3153412036327,1033.846606662651,2096.268545703276,1040.3750631842804,2256.0448817917354,2784.343329687067,2848.021853946155,1157.481241054178,4040.2883981993896,1544.496923849052,2695.7151563880875,4031.422057579436,1092.8749622667956,2559.360644681859,1737.242722079587,2306.96369663685,645.6506210760638,2847.742415706988,3010.921225572555,2360.276945149209,3238.917618982646,2695.7151563880875,2921.9531080180004,2563.227688615505,3863.214536026817,2823.380698149825,2301.238077842712,3797.28555330936,2319.9623063535496,683.057014174399,2965.5753173452367
1345.8661044012306,2410.970527004874,1175.5625381611403,-5.86536250273366,703.4551488422719,3839.24946284789,1344.6693227720116,3391.0268998610472,2221.931571185892,1695.430258444699,2201.690168186271,595.4234374595915,2779.855772738347,3719.1932511150726,1090.1246637300208,2070.991986093397,1029.2668009357262,2272.0876787370903,2731.2694435422864,2759.1094951835867,1094.4610260342142,4004.6267778538986,1507.1849883952898,2532.1775726466817,4113.435980008198,1059.8065751758977,2570.314500531043,1734.9293985426634,2340.219653821012,651.9981107756009,2905.8785098795406,2976.8863173238447,2257.8978537639787,3276.2014532181847,2532.1775726466817,3044.478524827741,2555.560410002181,3884.348589763252,2855.960360789953,2263.962658740418,3857.1906394530415,2329.637083997912,642.9839149745451,3005.1103163639727
1396.2601894180248,2432.945241228762,1144.2749459593272,-41.927415646637655,728.0472513071986,3668.555340777272,1233.6343365794796,3485.362793311854,2148.4337385637045,1651.360250944561,2206.065859335337,547.5792793366704,2901.846596588613,3497.91219890035,1154.9690406068644,2047.463056807796,1014.8030134661368,2289.495632111286,2685.470563167035,2652.337538211611,1042.499859185928,3977.615850887236,1436.4229558222328,2391.4594246785123,4192.371976539772,1069.8671176752418,2583.337459370258,1725.2357461064485,2371.807823469876,652.8390806656967,2963.255005850205,2918.163929171912,2172.805975883652,3316.500264266508,2391.4594246785123,3119.666794179468,2552.4580277323885,3886.278232293747,2891.868164800236,2234.3657790555285,3897.1608077717856,2341.632420687709,601.895484286423,3045.964562930216
1438.8640749315175,2478.324518986654,1110.1632530786171,-66.99857826012703,739.2824148788147,3476.672920994008,1124.5386474965503,3583.7032463642504,2080.0769030502315,1590.5535246056302,2212.7919493007657,498.93148394881,3072.8797754189045,3185.8411523363666,1218.857428743705,2026.4274892997591,993.4045705526491,2308.048124664508,2651.7186478938065,2533.745051697824,993.2697729630204,3959.1045045663486,1346.3048178129152,2266.214511923645,4258.808181465857,1130.4234507238093,2598.3017724044075,1708.995170722012,2402.937768006338,647.7066004820583,3021.184934673316,2848.973298737135,2101.5737538235903,3360.3846046941385,2266.214511923645,3146.1910887169106,2554.213737562194,3877.757545362084,2930.962920538708,2211.245257121868,3914.9520106015175,2355.8967061635944,559.749534885784,3088.392690584484
1467.5542259777817,2544.1442094629806,1054.7749671664528,-82.78200843895047,718.7230408928745,3290.100511074361,1025.2711614610191,3684.976682400768,2013.5982632683435,1512.9530470634918,2223.8229690922144,449.8812754799189,3288.163814896918,2830.6777602734355,1275.4579597991903,2008.638995557644,958.512510144481,2328.017717008939,2631.138762514549,2413.080762775909,944.5309177901972,3875.1844224198976,1251.644302149647,2148.988914173872,4298.853946528503,1242.5896638655431,2615.093676444712,1687.8512466089578,2431.1200910706248,637.4641426316014,3081.156351265893,2781.744728282649,2041.146134189352,3408.561627455751,2148.988914173872,3129.1718149810868,2560.678477177479,3866.6788038323,2973.005745771968,2192.977205558584,3911.718144181952,2372.5704439828414,516.747057501502,3135.847000057429
1480.9833097639016,2623.125979871563,1017.1293892000502,-92.18935719887486,665.2777011369938,3132.9504737794086,945.9543961368312,3784.602282456066,1943.9622057654688,1425.6221688900846,2240.074672264767,401.82745690878846,3529.7497802960443,2492.9502240331467,1321.881379989859,1994.6824619282472,904.9679555762598,2349.914171397445,2622.0989077503173,2300.878667335765,900.1565592163072,3848.885741492048,1165.9759969722618,2035.1252677174705,4296.573103336315,1401.4835506304937,2567.206700068313,1664.0803680099043,2452.445941463102,623.6436925618364,3144.38800113958,2724.775489231556,1988.1156334974487,3461.4386825670827,2035.1252677174705,3078.807289272577,2571.472876454306,3858.6981434882414,3017.8377055829487,2178.0775271541365,3889.246832527567,2391.8468048362265,473.1749820493028,3202.8885975334947
1481.2547932034067,2707.004863952926,977.3225143522552,-98.38480710699696,591.7880262698234,3019.703296705207,895.004640422424,3875.2282317662994,1864.377388932284,1340.0786133720242,2261.4996505871013,360.02596193972,3768.3335403762994,2224.231230377538,1358.0773240286514,1984.865765785843,833.3857978899637,2374.211245451613,2621.4342299210703,2123.101501488686,866.8947483617485,3779.992172959607,1099.6387344201698,1924.3589060554564,4239.569092158647,1598.1595148156468,2561.36445399876,1640.2056196698882,2463.7950158476788,607.8939119484571,3211.818950478821,2681.608560149714,1938.3506291639744,3519.186811719536,1924.3589060554564,3007.78215967762,2585.9451981355646,3856.749074164392,3065.5783111433184,2165.508825037124,3846.921684947829,2413.817743920335,429.24835491216845,3314.48649036723
1442.8300872022287,2789.20792261371,935.9776303075988,-104.02084729301303,518.6910885350319,2952.045203511843,875.9308888571429,3949.50554510112,1768.5510541573651,1267.865419942045,2287.3382459847867,334.8518846917725,3972.669664056784,2053.684486684868,1385.8297994839145,1979.224095108403,750.1460428527994,2401.185941465418,2625.6599306375474,2044.3144843745229,850.5864065846285,3645.4067588288726,1057.9126654176534,1788.5887565147725,4125.217609169276,1822.674804658455,2492.681505514107,1618.3836472081657,2464.1077812861927,596.6238831527323,3284.5960370212,2651.7711458251524,1886.250466288908,3582.233722988097,1788.5887565147725,2928.412447598983,2603.242013712754,3861.3084348287175,3116.596058433037,2154.7908259595542,3781.966721652717,2438.3894979728066,385.11785742375673,3487.604440561421
1422.9457392074337,2866.1811046638127,893.4784977033071,-110.80922428733264,466.27517433101,2919.6195288852896,886.484359066093,4002.783773734086,1654.5298516279,1216.7792182334315,2316.5146485260234,337.2765181545751,4119.696171079178,1984.8813507870368,1407.7376543715814,1977.634368666384,664.2882592869844,2431.017183151336,2631.8938397928187,1984.106425487064,853.7309741869997,3445.4240765052364,1040.913332115062,1722.4837160733816,3963.0852935862977,2065.188542152146,2332.9207271310406,1599.8481234340431,2454.630639938088,613.9988630606499,3364.310117351466,2632.213255480316,1823.2761777626768,3651.710629441798,1722.4837160733816,2850.4329087216283,2622.5563127827377,3870.675390014245,3171.1683320397824,2145.948950521753,3692.2232553530566,2465.3431769325725,340.9586481564056,3714.297202537803
1384.630585972738,2937.438391872158,849.9116748957047,-119.43618714131252,447.7083332667408,2904.1831920024624,920.0552381148786,4034.376500279818,1527.9319757309645,1189.0971235054426,2348.072143742538,372.5192903454352,4200.138538549594,2000.7613109212823,1426.389824390817,1979.949378273064,584.0900882634403,2463.9530629268097,2638.3582477802447,1936.0002631611164,874.9114258245213,3204.2435030235083,1046.0411250656844,1740.400162978572,3772.140055253312,2313.0029244527445,2088.7644412779123,1584.67673282352,2438.366674537432,702.5147273517405,3452.3342785998148,2618.872700134391,1739.6538603419986,3728.839149803209,1740.400162978572,2779.928759047952,2643.3482313369686,3879.861200802882,3290.72290261338,2139.3310855326977,3577.6665220172736,2494.496951813516,296.9650095151387,3963.9522585576506
1321.5235190659337,3004.799966975604,805.1749300438858,-129.73951505549576,466.0024711794049,2885.5723746217745,960.3762157820177,4046.427294994744,1401.919450241539,1181.883197354543,2381.405239941939,437.9314656316228,4218.672385650423,2072.774144216832,1443.7592548578714,1985.974792335756,515.2713222784403,2500.187368869036,2644.468388551642,1891.0369826282647,909.6464957202168,2957.8050737380663,1070.93663969633,1876.4260297545663,3560.245804767721,2547.38083364082,1798.812423960759,1571.942625854694,2419.1174636647047,895.3073600439516,3484.5432714671733,2608.008285615544,1631.4319993727215,3813.176465099049,1876.4260297545663,2719.3110389062813,2665.3912629231504,3878.5811080425938,3338.631659385437,2135.38187894174,3439.506229631103,2525.8173501613373,253.0691259753828,4197.802961811769
1234.207263518112,3071.4175657376304,759.115091722502,-141.02467250281688,515.7328030167755,2847.2199330238745,1014.0738946920928,4039.82284439045,1293.1044866700936,1188.721969281935,2416.22336093371,524.7146060357827,4190.079575669929,2170.3986591605253,1460.850270759274,1995.3776406449856,462.064990341647,2596.4271398852247,2650.5588051101786,1840.247105956932,951.8971471143244,2739.8667549892616,1135.154701319243,2127.6611889349256,3346.204433868168,2745.4251001362045,1513.0523663271692,1559.3524666341357,2400.515108912602,1188.3451954836255,3568.4457119853014,2597.04791032226,1506.1923318432373,3901.2463780936073,2127.6611889349256,2668.041404638489,2688.7030314727654,3851.907603505879,3389.09765545484,2134.481233704644,3278.7243039755017,2559.41833190321,209.05577717478377,4383.352432015284
1130.7772773337033,3140.875623137046,711.699872960472,-152.40151034743212,587.7422543062805,2779.8129602615672,1065.3644044968416,4010.935326927624,1215.6821537890178,1201.985296666529,2452.426859273015,620.6701824177817,4133.61035902155,2268.4649753714816,1477.6863092692786,2007.8601839707228,429.6723414849946,2661.9036691220654,2657.4256862848147,1777.6208201671286,995.6665592920942,2572.4039012694534,1201.9646490064756,2454.790379788399,3092.448045559685,2886.1276074876005,1273.0283965853787,1542.0359168119392,2385.3315350125163,1540.8579705585312,3609.102623244004,2584.86162806207,1380.9916166897503,3986.546936872721,2454.790379788399,2623.8526184511043,2713.495914272544,3785.407039756908,3442.121248767251,2136.887464308217,3095.8943692431594,2595.4662878786,166.84727837483274,4502.837451293282
1022.9917370375068,3216.2844559552723,663.1919168580955,-162.50972252929478,674.0462026850457,2682.257226608312,1108.753632096209,3954.401551025094,1177.045248698167,1214.8185935949575,2490.029849415568,713.1720678301783,4299.58616594808,2351.117431863024,1493.6082192587533,2023.444958197873,424.7388602845013,2785.5553152211346,2665.950409740847,1703.3314438255295,1036.3022652556554,2462.574941618453,1290.5164844265812,2801.51782473739,2776.1374853819893,2956.829947530311,1116.7552124547146,1513.7136730811192,2375.156826251046,1895.678983914053,3577.310371710657,2571.543303458659,1275.0504811039868,4061.047293532441,2801.51782473739,2584.021966342574,2740.1374299238378,3672.006513718042,3498.267913368307,2142.723558592543,2892.662883046126,2634.0409989596947,133.5812565644062,4553.65827622082
921.861852094762,3296.8403413167525,614.1562534485179,-167.19977923601982,770.4930149454767,2559.99070750231,1141.5006319612494,3869.362238573028,1176.4121172441392,1222.383163773664,2529.1197310823627,792.0161270499959,4234.665703546705,2412.4210133110155,1507.6930557326848,2042.424689651679,452.983172122071,2990.78641411574,2676.8755766030586,1624.856360963696,1071.1384484480534,2405.0330266444325,1402.0591144750872,3115.810441901244,2405.8354396186865,2957.785669625215,1014.8109510880436,1471.324094868276,2370.4185563798774,2201.332166591709,3466.8386869046208,2557.921155776967,1202.7647809554887,4117.713761816985,3115.810441901244,2546.257102927704,2769.042043696936,3516.361297432652,3556.3986303490483,2151.961420621524,2673.959168311109,2675.032544043448,120.70374839927877,4542.04229367186
834.6360956362785,3369.3329585595966,565.2224596286665,-155.54271181387003,876.7853966829052,2421.85025551952,1163.4134888739836,3761.468382997809,1206.191874650923,1222.2888503623308,2569.8002009789493,851.1462788392457,4161.422830907964,2454.397183548256,1519.0768330047254,2065.308762294924,515.9630572332085,3269.471341168244,2690.650159352116,1554.2028876904824,1099.3937038120905,2386.1220040708013,1536.2931742352478,3364.0211522534805,2020.9490585441688,2902.333285918184,973.4200813371712,1417.7719301705145,2370.6641921410323,2426.5166567646484,3297.967865674391,2545.1024811669627,1169.9532814514732,4152.73285613698,3364.0211522534805,2509.121090658745,2800.539934076338,3334.0969557460303,3606.656581102523,2164.439789853541,2449.1583621351083,2718.1668639168,138.74247355417083,4476.061486104859
763.7230973612757,3403.747399190842,516.7865254057972,-108.09930973674636,995.0674745464056,2276.700968590724,1176.1754424004223,3638.333866593783,1255.0029529293242,1214.3434778405986,2612.130441332006,888.9470704210644,4063.918486749933,2483.7728713895744,1527.136319505738,2093.2626894213845,609.07562458241,3583.9516550035914,2707.376899152796,1502.9432862945948,1121.6039135428755,2387.8243744429155,1691.1373925081862,3535.327910344731,1672.0334146996288,2812.080766791921,974.5675856168052,1359.907339331692,2374.979221762475,2564.3878316509035,3106.130700448612,2534.164000857013,1173.665089844999,4166.370391853153,3535.327910344731,2472.1165126617248,2834.80294152702,3146.558839671688,3625.828196103319,2179.951387758468,2230.9235087997813,2763.1474663887925,192.6117479883904,4363.878626594311
707.2795140025173,3364.9436537011497,468.86529523219,-0.526318800044919,1128.0216626521842,2130.8682383996684,1182.4097624061765,3504.317884410534,1311.018981819272,1199.594704302017,2656.1045985365754,908.117350408682,3923.903298606839,2508.761725958354,1531.563665469082,2128.18653541157,721.8076680527874,3885.081636682866,2726.934413498524,1478.1484534463582,1138.9611328664716,2391.885186271243,1863.261147439486,3638.397624826944,1400.6632965487545,2710.1743534356083,998.118734775872,1304.6914765565011,2382.3658210996664,2628.4622382253774,2926.4867886815414,2525.917762949925,1204.499067875597,4162.41521048849,3638.397624826944,2435.514753056272,2871.8038503885195,2973.9802767492365,3585.5445847964384,2198.391318434361,2032.4779147572333,2809.8186855970634,280.27929690013434,4215.778626937851
660.8014934879536,3233.6536187303564,421.13424238542416,188.81158760711787,1277.1154570807785,1987.1288654954376,1184.751738080931,3360.506278287223,1364.3677780122202,1178.7696391849877,2701.653485439829,915.9471067708524,3730.14257438863,2536.614968269037,1532.327441252204,2171.581416231763,840.0561948670559,4130.627810059333,2749.184271322352,1480.7533688085052,1152.7943209922832,2384.148314563676,2049.110090372528,3693.91387780808,1227.4809329733037,2615.831409263247,1026.2135238208784,1256.4516838252314,2392.0104218720608,2644.0921171024265,2782.294248635275,2520.789626791744,1250.1092388840066,4146.734409107116,3693.91387780808,2400.038921981572,2911.299708865927,2829.488240127237,3468.1475163631394,2219.845133870284,1864.8362746286627,2858.354767642633,393.9982957895995,4044.877933398771
618.9446458339573,3021.535884209229,373.0922818975589,470.6217189192573,1441.555884370404,1845.142245654608,1185.2147078321038,3207.641859013165,1408.120697780253,1151.4563651716237,2748.666327824056,924.0271194119327,3484.859315013647,2572.2036389192253,1529.5701998954082,2223.2717651486696,949.1639485429796,4186.237745106176,2774.068978685409,1506.189350728092,1164.2318970739043,2357.5703828255378,2246.2493753281474,3725.741346506544,1150.0302069882118,2541.2753618456472,1046.1884853527708,1216.010098604909,2403.504601724342,2639.539909512678,2680.5939790755183,2518.8694461533128,1298.6693375196735,4125.600151601323,3725.741346506544,2366.5288445594774,2952.9436818868207,2715.699596403449,3276.136057057508,2244.4558457120247,1734.6467725514458,2909.3712177330567,522.9725634230449,3864.891875470028
577.0285788366198,2773.057113220624,324.3036380820272,839.5395782813227,1617.8346425101156,1702.980168901728,1184.9728339837704,3047.1600798775817,1438.4294201197504,1117.114130479119,2797.0394145773853,945.7030112654528,3203.899959450443,2617.7376286957983,1523.4944261818102,2280.4080381988765,1036.0885661984871,4264.7537634186165,2801.5278579463693,1546.4165567618425,1174.0070811497092,2312.465589767241,2453.7571270028698,3752.8878521900815,1147.9765256455871,2491.087610667305,1051.5076911803114,1181.2040355311296,2416.9194198658447,2639.1016611357136,2614.566186373097,2520.053334834984,1341.2976495075316,4104.314648006717,3752.8878521900815,2335.667165171953,2996.500754253725,2625.188070327003,3030.6558303839965,2272.1626533617323,1643.069402724095,2963.760781588857,656.4878530290766,3687.1902446948143
531.9395158513894,2553.40014442282,274.62917490057293,1273.8262819967872,1799.6462786158206,1559.281971213166,1184.428431618758,2880.341274243126,1454.2808680028031,1076.48165092096,2846.7387815058128,991.8209612606402,2910.5918707195524,2673.331865314875,1514.2534917608882,2335.311578382531,1090.678666827173,4271.743420242216,2831.3723540953342,1592.4133613660083,1182.3940862101776,2253.9098616614897,2669.3402585297817,3784.984904956274,1191.8746302608745,2463.4954116455065,1041.0529203380454,1148.1124581671293,2432.570804855759,2659.006037919943,2569.7509712662377,2524.1534591822747,1373.0588408014464,4086.414943980534,3784.984904956274,2307.8171313184284,3041.957902419235,2544.419333405014,2763.095346431778,2302.6159802608345,1585.6539635208128,3022.380226885227,785.9780769079039,3519.5546707951544
482.3551328493704,2428.6723601370823,224.343685739379,1737.2343743677095,1978.6767693004133,1415.089298339967,1183.355006547093,2708.164017540592,1456.905045498214,1031.7098355813264,2897.886194882216,1067.7812226099588,2627.5315168334514,2737.894969323708,1501.4023516539228,2373.667451872132,1107.1165027729403,4220.594081827534,2863.27372892519,1636.3248121375002,1189.2727678195224,2187.780724637594,2884.0792572795995,3822.5965197808937,1251.9902851745085,2452.743608377068,1017.4938706281388,1112.7927444286022,2450.6596354776366,2706.276599805828,2531.088699374396,2530.9211039297384,1392.753497136766,4073.4967400715,3822.5965197808937,2283.003101520369,3089.500991886387,2459.322251241518,2505.219860258871,2335.3968647703987,1552.5372611637706,3085.839283220085,905.3033106467064,3366.664247343184
428.426482581664,2447.655229714507,174.09975050548906,2182.4426496745905,2146.535581863751,1274.8812364995183,1181.113442812241,2532.872950568801,1448.954399664512,985.5273421428628,2950.787666109698,1173.6039094119456,2370.3758611610274,2810.822125405084,1482.602133506368,2377.105339049749,1085.2662999830586,4117.937983503618,2896.874403166253,1672.772052868704,1194.2881933341332,2117.299180127048,3080.545376791906,3860.723508272488,1304.8419789671557,2451.6846208240854,985.388049800933,1073.080572418968,2471.1301875994386,2780.278680152252,2488.249793342952,2540.0361906603684,1401.9174985266704,4065.522784121476,3860.723508272488,2261.0228145169604,3139.427611332897,2360.45265808943,2282.2462802756063,2370.306484432669,1529.1957926323312,3154.446624507176,1010.1040830733916,3230.7874950842934
371.1474156247509,2628.0731860705764,124.7505059660832,2560.2242316649567,2296.392439304684,1146.5652048575002,1176.9653652498068,2359.783869006985,1433.6387502402831,940.3465272305737,3005.8430959142643,1305.4557777948253,2145.17799943939,2894.730681613413,1453.596667800437,2330.147946626325,1030.4623515541557,3964.61265137193,2931.9452868977505,1699.220697442666,1197.0100274887236,2041.25084789806,3237.690557126288,3892.8948894040695,1336.4231747579,2453.908744110377,949.4949255422548,1029.5082888575955,2493.829939015754,2875.7304757079187,2437.579994869374,2551.1518443219816,1403.5186613209528,4061.399147079296,3892.8948894040695,2241.617224683493,3191.9903548192246,2246.01176716238,2110.128236373581,2407.436726977307,1498.9649020130196,3228.2818595895424,1097.6009552009614,3111.877334847597
311.7713224102288,2948.7930049013785,77.08368396278252,2832.939403613196,2422.640981895035,1039.686302342543,1230.4455641409236,2197.136968764346,1413.9523033029625,897.6819402061815,3063.468250400706,1456.8570012012103,1949.259900585285,2995.767393324671,1411.0674228694966,2227.2788000813143,951.6408176228748,3763.4305482850255,2968.4787663421384,1715.5931171780005,1197.021523762155,1954.612127294209,3338.898308976554,3914.200423054153,1342.2564619195036,2455.016386718845,913.5989088644068,985.061595622547,2518.7419199494634,2985.616937036448,2380.765598935672,2563.987554168687,1400.7938689904563,4059.602512922308,3914.200423054153,2224.5929784464506,3247.332637300695,2121.668641742001,1995.0824408039089,2447.0574208797257,1447.4331240220067,3307.330189165905,1167.169539050889,3007.2911991515657
251.53275860123856,3354.044081939753,31.56699212206263,2984.514839508328,2519.84163364528,962.144414933672,1219.407332977784,2053.58409245976,1392.1571754703878,857.9341226342983,3124.076437821477,1619.5232572928264,1774.6768812758307,3119.13969511925,1355.5530491808763,2075.943460402156,859.3636501569781,3525.058474913463,3006.647796088578,1723.4271750907635,1194.0159313121944,1851.6713820186048,3377.7068505076377,3922.728718350748,1325.2412205791709,2452.9665979281003,879.9520376355824,944.1287952371326,2546.0207719885484,3102.09197821942,2322.134911809472,2578.4081742848807,1396.4191821102386,4058.017153989592,3922.728718350748,2209.868654059893,3305.5910432807286,1997.6742478970173,1933.8596785487016,2489.504816093652,1366.6048931020157,3391.6305797047885,1220.9010281675855,2911.5922853326333
191.5397379462165,3771.381883164583,-11.77231266913941,3022.304911806445,2583.376307647025,917.3085283710338,1197.0414176530862,1934.9047766063609,1369.6122811075234,820.5468065039815,3188.0137044672283,1784.2592660534476,1612.1108150586745,3264.1840124835885,1291.4459537467822,1894.1218951447004,764.8276083626824,3268.3264004936045,3046.638406768703,1724.9242283413073,1187.9497469202056,1729.8543445517623,3358.97293719064,3919.5778490700586,1109.8782775761629,2447.7617431228728,849.2270820158649,910.8674744007772,2551.153815461776,3214.174610954598,2266.550499189801,2594.47113072714,1392.0388870488373,4051.586208809365,3919.5778490700586,2197.472196292755,3366.958718484261,1885.1942015700656,1915.495130590832,2535.127464818278,1256.801525862525,3481.370774743724,1263.6984856503384,2817.299427812069
132.69682183762143,4134.491247224534,-53.26723619532777,2971.7822120570763,2611.4155311847853,903.0571363872424,1159.659824147605,1841.4690549814293,1346.8540083487806,784.4410368509984,3255.5105686665142,1942.1793660410945,1453.1418121601728,3422.9917104068654,1224.8132449944558,1704.738541858169,679.7727737415,3016.471121018289,3062.9171526123982,1722.1912025299634,1179.090828157713,1591.4274015594242,3296.2496373690965,3907.947744895495,1066.8515747293982,2440.894877283972,820.7980244945443,887.9541982239896,2582.923431772494,3305.373146383444,2218.526246025183,2612.404196121068,1388.1748827924584,4029.353852871988,3907.947744895495,2187.5122147472944,3431.6644222779823,1793.087818553866,1924.76866880562,2584.2599929277394,1126.5152757192411,3576.844406503197,1302.9252943937436,2717.2229764580848
75.88490582046188,4400.045867058445,-93.3179964631886,2867.469212863989,2606.161251994371,912.7727755172676,1107.9521817601712,1767.2387229524902,1323.7253994962373,748.4708073922563,3326.778771553396,2086.25700989645,1291.2186122646897,3582.0882372293,1161.047776074372,1530.250030466097,616.5057801613646,2791.389778121419,3071.3221511077754,1716.8166709095783,1167.89191739492,1442.4933843167294,3207.279635544949,3891.8883396518377,1023.6151492824356,2434.68985811247,793.298290517132,876.8397550099342,2609.248412349674,3355.7429601275344,2181.992823281073,2632.480159802495,1384.447616257881,3975.5043209237056,3891.8883396518377,2180.1289787700352,3499.957192011521,1725.265455930987,1945.650857462731,2637.1634389224064,990.833992634084,3677.926657695753,1347.3423061339004,2607.216909564002
22.48158673148191,4553.951579542912,-131.8245665504719,2773.2895979380487,2573.701395264234,937.4395581074614,1046.7500493695363,1701.261022491571,1299.4779430250028,711.7335526513025,3402.163195223651,2212.604459232693,1123.5716401676475,3726.062055264904,1103.4623560422424,1388.8438327411852,587.1448062406062,2607.757463019843,3023.4617765653425,1709.7301689152762,1154.8152440236731,1291.0758250803622,3109.39781878521,3875.165040606535,984.5275741017044,2431.481784583438,765.2779373844469,878.6282250960894,2621.387859894068,3347.656201199178,2159.6616030596247,2654.9039548622086,1379.9654444473033,3875.162505533777,3875.165040606535,2175.430349843916,3572.090402064496,1679.5584670476037,1963.5233303570767,2693.937089437268,867.9643978928655,3782.5687963488726,1405.337733623041,2487.3666466833274
-25.34943975624537,4607.964750438308,-167.09769425133436,2650.57539200769,2522.852411452061,955.2415151863725,982.6484749206502,1631.5886507514756,1273.0256000906438,673.7344544048647,3474.145382899189,2320.633569018843,955.2849986698292,3842.023462798418,1052.9533746069485,1292.087055224797,601.8917890789999,2469.4293370414744,2895.333197152452,1701.210429497796,1140.1802628343503,1145.4896475455294,3016.105975964224,3860.511215803602,951.1576364819344,2432.9168852892967,735.6900184374435,893.8772036531593,2611.1447430989665,3271.449753387093,2151.738471594963,2679.848919425708,1373.72958484606,3721.0973253092607,3860.511215803602,2174.441348899872,3646.295945854348,1648.929234380984,1966.900091240242,2754.4917290842486,774.240223762343,3885.36477798948,1483.387976218021,2361.3100427462377
-65.13869679378013,4588.860313237306,-194.44513212949687,2541.450900360749,2463.3130666844745,989.3269975578246,921.5961626402476,1549.7247803083749,1243.4033901491614,634.3953931103538,3506.070723811494,2411.788274145175,802.4223630889408,3923.036747617891,1008.3727925687716,1244.1596401824868,667.1105433094731,2369.442804381069,2695.249752682309,1690.9913195145125,1124.0809478947292,1013.0057239866946,2935.3924597550367,3848.976263013392,922.7593173966784,2439.671697705237,704.1150214648844,921.3618906976844,2574.4373457988686,3128.412161200104,2155.224935151118,2707.5694909683216,1364.9048398332168,3517.945365423296,3848.976263013392,2181.711555304525,3712.456987554954,1624.0920761870634,1949.3930757846304,2818.61336655419,719.7186755125911,3978.29905378898,1585.5480090545004,2233.3542459136133
-94.48457291128489,4522.260088893863,-206.1681861628026,2448.6201382145127,2403.681563832192,1016.5090919175708,867.3874216734807,1453.786907874432,1210.1471330148784,593.9251613870574,3430.5699982374254,2487.6739126576704,688.9862324155001,3969.243328866155,967.2952775914456,1243.1089819594984,783.9527298422572,2293.1700522374163,2459.7901809154127,1678.4872085232191,1106.3996304313296,898.9372667950456,2869.6852598275664,3838.05416598415,897.1768418007966,2451.529088702196,670.6864205752927,957.1315468009008,2512.3867844534,2930.54738596731,2164.734508876445,2738.3949156097883,1352.9533408186808,3281.796333461923,3838.05416598415,2205.576288311643,3748.424100811134,1596.236989741146,1911.475412204999,2886.091861902693,706.1717451109837,4053.567013005316,1699.0226744431443,2103.3119252313363
29.069468541477363,4419.154479339986,-193.88096430057607,2373.456493748348,2350.0599290344217,1034.0646545576858,821.2353628255473,1349.513549614843,1173.412031520082,552.6502969457215,3193.226376913862,2548.7667458676224,638.1943879890509,3986.713425267497,926.955438256022,1283.3564169475276,947.6869820344752,2223.636805411204,2234.1088633174104,1663.0377798714826,1086.8839200219022,806.5218295020322,2817.144505424025,3818.325701789935,871.9176611524272,2467.668806195864,635.8212389789271,994.771182725796,2430.236301253128,2698.0431340159207,2173.7324070349628,2772.5859472853776,1337.7263955065764,3034.975587521209,3818.325701789935,2252.906038020916,3728.282187999955,1559.222045164964,1861.152957452736,2956.8576759796,727.787071289187,4106.339389191913,1856.7175351793223,1965.2704522286565
33.30388113620711,4275.367202518805,-150.80070207369772,2318.121452444331,2305.5848521158737,1041.3027144565026,782.0993430144185,1248.427842814127,1133.8584316024971,510.867813264337,2797.110329025189,2594.1363240055507,664.2864665147649,3984.9317869526494,885.0369842130679,1357.7726499430885,1148.1575772317617,2147.3000374299395,2053.865613259205,1644.0716686852877,1065.2654370366222,737.3563201362829,2773.773736850958,3772.544740017271,845.0669149263802,2487.071899767824,599.9867752269636,1026.8972612513812,2335.560263753467,2455.3426581804447,2174.9748289608656,2810.199952658393,1319.4550244467137,2799.1055316562806,3772.544740017271,2323.5963037098018,3636.3220142119417,1510.8809475402416,1812.881655610936,3031.043552408448,773.8249457683955,4136.032761468185,2047.638344162816,1814.6663717650536
71.70847425647389,4082.5124325134143,-71.53218838643215,2284.555455828958,2270.7707463857287,1039.076022788446,747.4386811044101,1163.528227291916,1092.3365542924107,596.0915636971579,2303.084526211712,2622.077118931962,768.9920000670222,3973.509264759121,840.0101427999216,1458.5182264297705,1371.5814824372237,2057.8939020160674,1935.616649673388,1621.238777924498,1041.3803392089144,691.5931278454784,2735.350221390122,3681.301011416445,815.722763203036,2508.875228647152,563.5569855451697,1047.4407017657682,2236.8093255551107,2226.174882435406,2160.8097205978183,2851.069816623115,1298.510066506596,2589.945578702393,3681.301011416445,2410.369142876696,3474.296645231996,1453.3760090511382,1784.845729521356,3104.340061788784,831.9789632850934,4145.966766361007,2267.116800400697,1655.3298143340205
155.50390981085548,3839.577968455915,48.96738760193739,2273.1061804489887,2244.308377084837,1029.2102838788942,714.5403305414814,1104.642261355404,1049.534238608676,552.035426753338,1798.886910136721,2631.3491141192662,942.2090966190392,3957.8897652386095,791.4655182808233,1577.1089756091255,1603.2327171574934,1956.8288207795176,1876.2589708604096,1594.4970478475336,1015.2346577072108,583.3185782005448,2698.503720133868,3532.3843558726767,783.9295229153286,2533.9240055748905,527.0526367827672,1053.9794512832036,2142.2792325506043,2028.416419334036,2124.548743462233,2895.037973743036,1275.1133037263498,2415.3527224833106,3532.3843558726767,2502.552372367352,3259.583820804892,1392.5775801088316,1795.5110082790145,3155.434025839147,891.3418438505746,4141.9489357364455,2499.2681541632955,1498.6786790143724
287.9899174581737,3557.715626938136,212.06270813376972,2281.9329481153395,2223.983028969818,1013.900776137414,682.4524477506807,1075.6133758246842,1005.7917794617896,508.5030456170591,1365.3042746054848,2622.3447509518764,1164.9536272801272,3935.6520540477736,741.1720556261303,1704.32394364724,1830.7989671927696,1851.015057666876,1859.2586883382096,1564.0690335441818,987.5035399098329,579.3097040311511,2661.084313441984,3327.188420485161,750.3336475444389,2568.3510311631308,492.414514979959,1048.924728050091,2059.085931005149,1870.6382659865,2062.489162451968,2942.2946221481325,1249.3287851439504,2276.080922252834,3327.188420485161,2590.335068960166,3018.077140565292,1336.3030288149355,1860.6518536478904,3143.8162512825047,944.321198957792,4130.505241165048,2721.817124967595,1357.9899253189417
460.09146730058296,3257.81155319936,408.3436124524749,2307.359250409272,2207.517647476131,995.2460774103648,653.0614401178864,1074.00576216103,961.0703257151912,469.95182275166735,1053.596529899675,2597.5038470660097,1413.3916746937953,3897.714848707776,693.6691286307953,1830.029039710958,2047.068634909806,1750.098923355397,1864.266026955892,1530.3084934984945,961.1891844488084,589.7678266313269,2622.199861018591,3081.040448577877,715.7218575332124,2623.7315191559533,464.3934706451041,1038.7534153325664,1992.280887131704,1751.9107271507514,1974.8377458676869,2993.325568416424,1221.2466580952196,2168.4878157038816,3081.040448577877,2667.541987285434,2776.123023963244,1291.8242820406083,1992.1340933717984,3033.207714552904,987.204281073879,4117.352856960146,2914.470436362119,1243.025109468908
651.7289303154696,2964.4877604797,615.7309805785378,2344.7600714100467,2193.171199508321,974.9440922612804,629.9396927206669,1092.7723960815974,915.0399937356358,445.67128787984166,878.0741844887475,2560.994017004532,1663.309957666403,3834.962105750329,654.5940288931988,1943.128971592033,2248.8827001527616,1663.440500028562,1876.135247732112,1493.5899082656888,943.7564579506286,611.4736602831199,2582.0886727027428,2817.93946259259,680.6481812687819,2709.768356988476,449.4790861335134,1031.7599169312075,1944.434436905856,1664.480094999474,1865.288655439448,3048.590695076369,1191.0681645312584,2087.5200664602808,2817.93946259259,2732.4906806790805,2554.940886186588,1263.707277034593,2197.3615400305407,2817.1166841143995,1019.596805707294,4106.453434792044,3065.1410261530787,1157.3293577504332
838.6667903264536,2700.316050640557,806.3963529522596,2389.493082965773,2179.9475214807035,954.0961102463834,616.530140899032,1122.8024294512852,867.3541940723828,446.2778475994751,821.26243067008,2569.2804313761144,1894.200830418844,3699.567059086182,629.0595908699086,2032.4809736624884,2432.261731570687,1596.5759107318129,1889.437018373658,1454.2441897259837,947.471501459942,644.1241959956185,2541.8018589888834,2562.412092027509,645.4232725949848,2826.940770231972,452.0567199047971,1035.261704795215,1915.4601342716933,1597.697525501262,1740.5117506759834,3108.5177429509586,1159.0842276967817,2028.3726696449337,2562.412092027509,2787.460120595712,2368.3738980160047,1252.766758459183,2474.982278463246,2521.4428792534377,1043.3327650722288,4099.102512652276,3172.233093435503,1098.330437001167
1001.0305826190158,2481.489833418445,956.4325038763589,2437.6516626601474,2167.532774697583,933.142922398046,615.6546428202532,1155.3229130803052,817.9508950293427,477.55974462442896,846.181889328072,2488.831614887852,2092.355895485596,3585.3571015631587,623.8587204099892,2071.683822940638,2588.840282841265,1548.63785447882,1907.1476897859604,1412.4920932256475,985.3865990511554,690.0493561294563,2502.722805260494,2332.4560440268365,610.3399162961975,2966.3830088882064,471.0294597931984,1053.3144896945223,1902.3128470517177,1542.0834718497624,1609.6363786131824,3173.747275606902,1125.6446141577896,1986.74755169652,2332.4560440268365,2837.3945757979245,2222.75681529392,1256.3147680272305,2806.464759638372,2190.278970470164,1061.2842310291203,4092.154311196966,3243.2309196890133,1059.1482924233346
1129.3681140577607,2314.798124788017,1052.4272555041216,2486.5392607142767,2156.289224716369,911.918432618656,629.8214351459319,1183.564725905167,767.03407771246,537.3427168633996,910.1547822422016,2332.039355764642,2252.1716351208056,3458.205869434328,650.0332273310557,2078.989136470898,2707.6000519164363,1512.9415648700892,1936.067554454749,1368.4145451751492,1064.0814701412362,752.4556754149951,2466.104138118612,2136.1573073466666,575.727053690083,3114.7159509410453,499.8062205966621,1086.096556083046,1886.9250478089675,1487.9969883621234,1483.3326134090062,3245.1080608290936,1091.111569320245,1958.5764165607147,2136.1573073466666,2888.1364500978907,2117.617621234044,1269.388239863918,3150.7161258705705,1869.085405038416,1076.3082811249485,4077.1552155810623,3290.981138633402,1031.0343833227948
1226.408325011664,2196.525414265197,1093.3316171617246,2534.7854395036456,2147.2288247765628,889.8159343030145,661.2607193775918,1203.5203287047889,714.8149143718003,616.9875274244864,975.9908356565102,2065.5997356740263,2374.4816406945347,3329.202601524652,719.4971925314276,2024.8349103013936,2779.934972993982,1481.2054361856578,1982.56273087152,1322.021520524153,1179.3646461835087,833.4089656059239,2432.791694384913,1972.188639749012,541.7604260641604,3259.2426373285625,529.2561822796206,1130.763741471695,1883.559567402588,1450.4576724608255,1372.4717800128224,3323.2434833173866,1055.7513937309773,1939.553268092413,1972.188639749012,2944.622164932513,2046.5999275657232,1286.2975054834656,3448.799438547337,1592.281561813612,1090.5597674128107,4043.1611445924896,3329.5288587195378,1005.6849331489344
1304.781431796289,2114.0454648203763,1088.3555008548096,2582.1795028015595,2141.607241936191,866.0982878088284,711.3617173083317,1213.8686010376523,661.4113959001304,705.3283417044549,1018.5156526266704,1697.0714087968283,2462.944684117662,3206.341784396446,838.0250031546457,1908.9990480878168,2803.775904227841,1448.5899868523998,2050.138399913265,1273.3413713674263,1318.4421175021234,931.6081697263724,2403.153467022164,1832.5351196947795,508.3065576390643,3390.184790408412,551.3121911711912,1182.5492079216488,1870.636666868951,1420.76250429158,1286.0700997428594,3408.281842667401,1019.5737131463028,1924.808001428602,1832.5351196947795,3009.974338144383,1997.627692042239,1301.949016153168,3639.561957914504,1378.3096822237983,1105.234292143456,3981.449502011049,3371.878479895523,976.8260497869452
1381.7022566825208,2050.925573041029,1052.5769564577129,2629.364686801674,2140.35365622485,840.2759463874147,779.5288353419926,1215.343574369591,606.9154153410725,793.0667960439446,1026.3256749387197,1273.8897778282408,2521.590815947993,3091.5678341411776,1001.0165358824776,1756.522471611956,2784.638805201293,1415.692519550079,2138.4652007833693,1222.4424777354434,1465.5038061894854,1040.870729385784,2377.1408101201973,1705.637639521265,475.0114809068459,3497.6533020757206,561.6099902450778,1235.8985017794846,1840.7851603554584,1402.2753996188435,1229.0307619621783,3499.6144470424542,982.281645352586,1909.184793263972,1705.637639521265,3085.7700312801944,1952.5132635912591,1312.7080551755828,3679.6963145310433,1231.55942562601,1120.6081981474715,3888.287076896182,3430.9233368072705,940.8901714777858
1472.3620774312826,1995.9710049509547,1002.1817776641924,2680.4963899792674,2143.8251121580533,812.3564656728367,861.9983490881334,1209.89990734781,551.4013667482702,876.4294239638937,999.8229743102052,860.2547679419717,2554.573590092021,2980.681264399719,1193.7645697524213,1614.1306231814433,2733.861958071321,1386.8712553570808,2243.458076384375,1169.4463924840743,1606.831395712615,1151.0168903727167,2354.440629975999,1579.3988880908428,441.5199207694429,3567.128626891065,560.7684897165752,1286.014087240176,1790.058994644483,1397.1146504486155,1200.991470255133,3595.1895247895536,943.447741455077,1887.7196273057127,1579.3988880908428,3172.414648179235,1890.46496435258,1316.7364233799449,3557.191144071868,1147.2621489260616,1136.2529519460345,3765.283503333787,3519.166803538703,896.948296718218
1584.9754665407177,1950.761287954862,950.769853444403,2728.2086914581214,2151.9068576663813,782.7974846731886,951.4250246154902,1199.8977542137186,494.91288867230514,958.5689086602528,947.108980234622,512.7200337601757,2566.6917365098966,2866.3484407932224,1395.1740696256727,1531.6578565087482,2665.3629425969784,1367.2076765521124,2358.2983945926226,1114.6135057006106,1734.0681679896218,1250.8493747088114,2334.661529011944,1444.6499799932014,407.6054736417036,3580.858681270492,554.4101137046064,1330.4977433074914,1718.4892872941564,1405.3976597843755,1196.8675426731234,3690.459865845493,902.7645130892,1855.764596606609,1444.6499799932014,3268.513572355347,1797.396000569476,1313.8330661545724,3291.600916317316,1115.6420643272616,1151.3456777746385,3618.735573322308,3642.868055057036,846.078354651635
1719.847767648371,1927.6291278856256,907.2648382665776,2778.68567254718,2164.215423290538,752.241148306744,1038.130736911335,1187.4325620809896,437.5445177984116,1047.7928480240948,879.4178411629043,264.6335839306128,2563.501360827316,2742.598155395464,1583.6159955074716,1541.7325365792135,2592.3158351878183,1360.0612251102875,2475.088462483099,1058.354705106949,1845.5630071280607,1330.9063111856328,2317.4614034871656,1299.5758162111342,373.23471093399576,3524.976822080688,551.8915857880272,1370.436665674933,1631.0920976194896,1425.559189550552,1208.6828867709671,3778.51126698003,860.1869916468368,1808.9408163390176,1299.5758162111342,3369.553120162501,1673.9518358604091,1304.9246787148109,2924.353024129005,1124.4185885788038,1164.9805267521306,3458.440519092561,3795.890554818197,790.4461585825807
1871.9423848071067,1939.825748898791,875.4233352641149,2832.3974792287245,2180.256250467224,721.2157851060356,1113.238633430803,1173.924342690451,379.5257807436276,1153.4530574167688,807.3941275558411,121.89208294403238,2550.890661587518,2608.483278175744,1742.7384110631842,1649.8352325919473,2524.683816805853,1365.895395851789,2586.810462229421,1000.9852206166848,1945.773146685822,1384.7700991874997,2302.613073195644,1152.5254904616213,338.60227564451134,3396.0722922571126,563.2515097837384,1410.3181034741042,1537.9610757556964,1454.159293023748,1227.7849051705407,3852.045936012738,815.9660725229,1743.7800100196932,1152.5254904616213,3467.6661237570074,1535.7003684624844,1291.4627181560122,2506.027412350409,1160.5298642106663,1176.401716564142,3295.7569097248265,3960.494904509385,732.4469988651906
2034.033279032139,1992.8844242903683,854.6621881856299,2889.624282876144,2199.527825290316,689.8817428731784,1172.0582944386945,1159.997337448836,321.15989662864035,1281.4911761675169,738.7886904629731,67.7445033387296,2534.409244813806,2469.018317825522,1865.069679790113,1836.758462527508,2468.0424904973443,1382.3987520965825,2688.584915372825,942.4727340173806,2043.3002182772584,1409.9594197754232,2290.1414172736736,1019.4779166957468,304.06094579687965,3203.8071292358923,594.7188969145257,1456.5369473954586,1451.8508157021097,1485.08985811081,1246.6899294721825,3905.904104273677,770.5905924207732,1660.112435889248,1019.4779166957468,3553.6339935833707,1406.9090973975383,1274.9257197704355,2085.0157568901195,1211.7326237254233,1185.1403477062968,3141.1553856814,4114.2477703705645,674.0818464621207
2197.812084507086,2081.934246043816,841.6257817074074,2950.5856867254884,2221.634782137593,657.9684906424484,1215.525920435013,1145.5911262283933,262.7648872650268,1431.2514825146643,677.5832434556994,72.87594424641634,2518.606086420896,2332.819507778706,1952.5795572881807,2068.27660788748,2423.832546665581,1405.4744018070264,2777.133129515049,882.5307141924748,2148.971682865387,1409.030528426326,2280.570579329007,917.2610707887312,269.98453810567185,2969.38957405674,784.127198239164,1515.1073233554405,1384.1427651174015,1509.8390336566124,1260.2167058228724,3937.890656452695,724.5648164120689,1563.9278058779903,917.2610707887312,3619.9834761793454,1312.3760846553346,1256.4665668410782,1700.0799390026204,1267.9477606024604,1191.0487558038922,3002.041944890304,4237.946417721747,616.8580806789228
2353.001072128152,2194.223225321362,831.8729082639729,3015.510433006487,2246.3898418427607,625.0498293322412,1249.147443270562,1130.211661991248,205.6123619890111,1594.213786251979,624.3101948876517,107.3855075567276,2506.5567321947174,2208.073031078965,2014.473624044512,2306.037567601456,2390.658492366752,1430.473311385511,2849.628208071585,820.947968142104,2274.801982073766,1389.333266604992,2274.881902241378,857.1125822417437,236.6421839504385,2721.018037801999,849.1177183589614,1589.287830942139,1341.5187232195751,1519.372280154952,1265.826701383036,3946.085261534518,678.0747315324786,1467.27939984458,857.1125822417437,3663.242601460917,1270.3231858080053,1236.7228225448723,1377.941183220443,1321.9861101620545,1194.1944715137888,2881.272313680255,4320.8553191725,562.438448768062
2487.2207191655853,2314.5463418586287,821.3257976551199,3084.5782848980098,2273.855906485777,590.9073024495967,1280.624747682175,1113.2201536400223,154.2879290169085,1755.0868981802753,577.0882414682542,150.8720065199184,2499.7763796044787,2099.33723911065,2063.29603991408,2516.239593669885,2365.786808681198,1453.2778315534097,2903.7605737761223,757.8439480618601,2431.8518892842594,1360.051748281879,2273.931764659132,841.4714632530897,204.11554616916965,2552.088711349544,911.3901436339838,1677.3855573464236,1324.7018821005126,1506.5770720325554,1263.285048292925,3924.589001267096,630.8612384846278,1384.4105147393036,841.4714632530897,3684.341698785809,1287.6716669606258,1215.8322933858783,1133.9281277272455,1315.812093378299,1194.7063305273418,2776.6916226580342,4362.085881440388,513.1277316008109
2588.612835936557,2430.7914762995765,807.2796981414579,3157.7767940839667,2304.693803106098,555.5800164648288,1317.6350562558057,1094.0699518231306,117.7055072350622,1895.140738332382,532.8301495469943,197.10432536934627,2498.5415607141967,2006.5096437009563,2111.150039681231,2675.246391076156,2346.286130487078,1471.046299435911,2938.6595417081835,693.943947456828,2623.6209078875822,1327.7931680435763,2277.8868498207244,864.3376089082026,172.36020129325289,2348.20597162883,958.7645600308506,1771.725352862772,1329.2552664465593,1468.539878891346,1253.8786931655031,3863.366332248026,582.4954921588667,1326.8234497734045,864.3376089082026,3686.6838361794207,1358.3144318047396,1198.5222448817317,972.612050523686,1356.9692062494596,1185.184219843661,2682.2880621170025,4368.543815547237,471.3789524323579
2649.7219362252763,2536.809231869048,788.7277827697012,3234.8993302491544,2340.961748922785,519.1561077195674,1366.11514105672,1072.4232002982735,106.28733958362614,1996.6003119855247,628.0895613599425,252.67508809656732,2502.360310300713,1925.9108336957104,2167.412801976397,2772.433832363893,2329.7111836080016,1482.4612832409248,2955.672625682178,631.2968415394873,2838.2877814268186,1293.4687996307052,2286.190378486173,914.1011326017848,141.57856052961938,2202.005752523008,984.4635920695156,1860.3219714497336,1347.6462567182127,1408.4843388275626,1239.5173074159266,3754.02359104876,532.7879835245762,1299.9769456040506,914.1011326017848,3672.083975994676,1465.1359814579946,1206.963434252316,888.2095013748733,1390.4448456753678,1185.3396760503242,2590.5166150611194,4350.0025187974325,439.3284903019594
2669.871238287102,2631.6170386945105,766.0299376859421,3315.8020372050914,2365.8237058845416,481.6483570914204,1428.8355787270907,1048.1556741881416,127.75358999725016,2047.0488759091204,582.7718037624497,331.3607943200402,2510.336865882404,1852.3585985759976,2237.835826973375,2810.2790402031987,2314.3971805541705,1487.5157623125394,2958.838182169248,574.0567284880092,3048.98880375655,1252.2342222900684,2297.896692801025,977.2414465678678,112.83586132308916,2119.7950692513823,989.6379888223228,1931.0448823618988,1371.5967280734424,1336.0394633695687,1222.0012680000434,3596.693024798666,481.9672749628212,1302.5448778825262,977.2414465678678,3637.403718343386,1585.8646453852978,1280.7582350659536,866.4072883885672,1417.1656823116862,1183.5310701585836,2494.515938003602,4312.656841872648,419.2805707051703
2655.001137701728,2716.321267539769,740.3531545398421,3400.7521220772173,2419.611378778037,443.0384729821296,1504.9141993942162,1021.324571932573,185.0897256324156,2043.2774839051287,542.2971269927189,446.1931668878485,2521.4492024231668,1781.1513557311062,2324.108775157699,2801.159106837931,2299.483561500293,1487.0758608121355,2955.122733387961,528.226196013065,3223.7310379164337,1196.1707063104482,2312.048021153977,1003.6632194111294,88.3582013601183,2097.2050795358205,982.826348174734,1975.863435942004,1394.0020105082083,1264.4935859280508,1202.5788238840482,3402.715372070252,430.55813875511126,1327.8704670989673,1003.6632194111294,3575.899840446471,1700.4582216085278,1449.2907089793844,887.9450023143247,1438.0525850495285,1179.925260337675,2389.843531587156,4254.999811241774,414.3923043270727
2615.390519885711,2791.1415554209752,713.1894449163442,3490.574469230747,2484.749860801888,403.3537608455872,1590.9644589183188,992.1238602817316,276.8270715752981,1993.673848590734,518.6613104155344,602.1679490754532,2534.833697836475,1709.7170499779688,2423.6156380275384,2761.444242497474,2284.7663872758244,1482.3956003156636,2954.450598510879,500.0249858027805,3336.232567292002,1118.3896119997976,2327.9360234817063,1069.243332321379,70.98849386072834,2121.531970159105,976.7158220366877,1993.1181852068007,1410.077545881412,1206.3133993332146,1181.844731845033,3192.033321236366,379.5153344079277,1366.5720119389778,1069.243332321379,3482.7614116776244,1796.4414518701003,1705.1696439613636,932.8195335561852,1453.7457771765162,1174.5069204207657,2275.782855622484,4169.805965046652,428.9305325811088
2562.4248062222737,2854.1964463050376,685.9576707378521,3585.4411834171888,2558.69256496497,362.7293108488534,1683.1732605367158,960.8247372197452,397.8082490649531,1920.1734476438755,524.6766437811161,793.0771210157761,2549.9733822473004,1638.470127088464,2529.6931426804604,2705.105700342881,2270.477089794677,1474.6912133845367,2969.117976412389,493.7110043864741,3370.263240919808,1017.4021654733078,2345.2267614622133,1123.2207199491502,63.08485723089325,2176.1155841131504,983.5846497671098,1987.914065856872,1417.7018625033966,1169.5061321792386,1159.9150764971318,2987.527328785946,331.35170837331634,1409.2062468869008,1123.2207199491502,3359.8528421936394,1870.496258354852,2006.098263761676,983.880907593428,1464.6804117965896,1167.167954417118,2155.5263783383866,4051.531200483632,467.9287899948106
2506.3042895636936,2902.148644924019,659.6653357247508,3681.259451495512,2637.809753208663,321.44076783891137,1778.855485980889,927.7048338426988,539.7935077102529,1859.5475791044296,566.3794709820652,1003.5227716271309,2566.724766567304,1570.0763191232704,2632.316953757141,2639.4730443705507,2257.078027108911,1464.898315499511,3011.2656726757045,510.1420755498425,3320.1177321378145,899.6621350905875,2363.977963510561,1165.079418029385,65.62496124176823,2245.6239179894337,1011.3499331836928,1971.063252988172,1417.0666680471206,1156.1161092906136,1136.6737926656406,2779.957849146826,291.3563804843945,1448.2745635912852,1165.079418029385,3216.392010606754,1927.1823342033856,2295.5484353002585,1029.0700882504057,1471.2319097133682,1157.8242303676675,2034.5829898895008,3904.1239101158026,534.8128965805138
2455.4798650272933,2931.9945363772385,634.692440249607,3766.551712382314,2718.890082912938,279.8598627228896,1876.933530067628,892.9542356557724,692.7719803888715,1854.305353889188,639.4626362975025,1214.268329786028,2585.330579839572,1507.3866384222583,2719.488610464497,2564.8482631244897,2245.1135674299608,1453.600136998066,3087.8422756659866,546.5654647275078,3192.966094589396,778.0280301230705,2384.544376171568,1196.9319584621928,77.93668061731933,2320.234632655775,1061.6026440262888,1956.250840347347,1409.8178357868292,1162.7692944725727,1111.9234918187608,2615.6263959753487,266.9223749133291,1479.2323123151164,1196.9319584621928,3065.7256344963043,1976.0795528377064,2524.197303190399,1062.0656468080192,1473.7648705806766,1146.399950506035,1918.0475652801904,3743.8566431029058,627.2558962206517
2416.5238429111105,2943.0307055360618,611.1572165303121,3823.5086138392217,2800.011621797259,238.3905238732445,1977.633776012305,856.6246612058462,847.0242661224256,1930.7243748593448,731.3340829015553,1408.2813456144445,2606.3760293511014,1451.9186834491095,2779.9703727215524,2477.726275335211,2235.1150365754424,1441.0173501915654,3196.126981107796,597.2134739566568,3010.320860556206,666.9654805868622,2407.3969604966583,1222.0560746723122,98.00989916692606,2397.665790388796,1130.239576705275,1956.478961631876,1398.0101505654188,1182.5974299832596,1085.4230277356955,2438.914059810103,264.9844757781848,1500.486556775616,1222.0560746723122,2920.387289416054,1986.5939143978387,2663.618085063925,1081.5751624720851,1472.6363913866155,1132.8083697065213,1808.0727809278023,3515.455354963261,735.6663331644274
2393.58675159587,2937.853644611472,590.2269482486306,3832.262359096632,2880.803199637895,197.64845764591928,2126.2594084836105,818.6965494277192,994.7421239699288,2083.3354806123616,826.6105503195856,1575.097651803212,2630.5160957602984,1404.346136992503,2806.561347162692,2375.773774202048,2227.529369202571,1427.0559581602845,3324.093677712447,654.6782855950757,2803.158671584052,577.6457277757384,2432.9606611178924,1243.663993459296,123.13770761983072,2483.074549635555,1210.286861300894,1981.6995726557948,1383.317023382557,1207.6471944998484,1056.9055467226194,2222.4461835508614,333.0539406941691,1512.6124909826635,1243.663993459296,2788.969227589226,2052.444613393285,2709.922391459844,1089.768545686475,1468.2208602467988,1117.0507455751974,1702.8469373652115,3405.156551523088,846.864359456926
2388.0444363466586,2922.073937969021,575.0688665014379,3776.374518226363,2962.273665070415,159.0039784444973,2236.641684405338,779.1868142514099,1130.655174699411,2279.4730385690136,913.138898703608,1712.0921460822556,2658.1652171596897,1365.8679546707249,2798.1027171890846,2261.8194424213425,2222.6320638578845,1411.426731000141,3455.4255522481576,711.9358476577256,2602.3735758719454,515.160632443346,2461.553389542189,1264.1401080962305,150.60698967526423,2586.9555541868995,1295.185759044616,2037.591926900176,1366.7878400460315,1230.9176496727518,1026.1234838098544,1964.5050955034333,383.71396529369326,1517.1332265153662,1264.1401080962305,2676.516978356121,2126.2603753441967,2679.2183378603795,1090.4577583431148,1460.8864643531244,1099.3126443205747,1598.7971745470156,3345.9737559482846,949.89211724058
2398.7204574406246,2903.2069239298794,570.1191181855472,3648.28814037956,3046.237745570549,124.59057225152468,2343.0880248405283,738.2052838350237,1252.166057892296,2475.8199015913906,986.7311670338712,1823.0667085776224,2689.4127307965136,1338.4645014782934,2759.3318684094625,2144.2720183428883,2220.463157560662,1393.761435162207,3575.384398999163,763.9388229702242,2430.1047248478453,478.2681789424398,2493.456174570427,1284.740561057512,178.23088989251437,2721.581660093869,1381.058194139589,2124.371957089136,1304.473214673391,1247.5420134667197,992.9081426468856,1690.0354399547596,461.0280333931894,1489.2884498971534,1284.740561057512,2586.3373545447007,2201.0461646704966,2598.8188390161818,1087.5942721331523,1450.905605027343,1079.877150761953,1495.2075016981744,3338.1220347259787,1039.7399986377015
2422.5145889839464,2888.677474461678,579.8035347176105,3452.46981593802,3134.6075628180006,96.128439723037,2439.606157649109,695.9577836343879,1359.3271286401805,2634.757819003201,1052.8882685710555,1915.6720949546127,2724.102542320737,1323.8744714250954,2698.980889019381,2034.0660452545053,2220.8672082691787,1373.6902123729296,3674.740873790187,808.2780620401256,2295.349137263059,461.5615224112091,2529.0720216563413,1305.6751442610096,204.62441141364025,2896.067243243904,1467.738398833875,2235.744589828598,1290.03705933043,1255.1113116368942,956.9387976891044,1435.7368014820236,562.2347762168222,1474.1302493626768,1305.6751442610096,2520.6011844334625,2267.7226223819,2498.0219270277817,1084.3077871104488,1438.3824509085578,1058.884311911982,1396.5497885203267,3366.5709864283745,1117.5699968476451
2455.317415707253,2883.0958190291103,607.9655506582485,3204.903752172788,3228.947247049868,74.11647471584638,2521.727760858556,652.6894714603684,1454.392023415769,2734.2896971409164,1123.9580425949289,1998.550053405953,2761.9656367283187,1322.4053642057008,2627.288591846633,1940.8469182293827,2223.602006639992,1350.9136695282832,3748.1650765531,845.4501248035315,2194.467166436873,459.7509481679713,2568.963830944456,1326.3938787789398,229.2242916628068,3110.5398922660343,1558.469316680023,2359.1799858330046,1274.716863669475,1251.7997123519797,916.9845733450534,1303.8730805647692,683.4411372461029,1433.3625610013196,1326.3938787789398,2479.317052059955,2319.608266766667,2401.062676973288,1082.4086071383826,1423.2455002183206,1036.1866575611389,1310.3568114960983,3406.1657060914886,1188.3710586873135
2493.0310173463704,2886.042909694418,657.6744233007219,2929.6700526580507,3329.8607902832555,58.93810186587461,2587.579177434556,608.5887915464325,1540.7834283886775,2770.3257954838787,1213.061366216964,2078.698025442095,2802.78301325303,1332.3958031811594,2553.881657265215,1870.384122527836,2228.931785504612,1325.2817544762738,3784.098910363556,878.5595943242204,2115.7992370262955,471.84178933378325,2613.620309458348,1345.9344338253632,252.1210414031293,3353.022032784936,1657.774589540868,2478.4893575030133,1258.2869402562428,1231.5439533266292,898.0224598591217,1190.6208265183875,819.62122939454,1357.6011086642502,1345.9344338253632,2458.589167024584,2354.9520727694253,2323.345939019662,1082.3001225547946,1405.324900239415,1011.4552224688466,1243.3633906972257,3430.104867730017,1257.7408028933637
2532.40806045424,2891.255482389796,733.5679542504563,2654.341169046076,3435.6013179585743,52.82744152591204,2636.709956205035,563.7348014732518,1621.9285166335535,2753.3343229973075,1328.302725577563,2159.982531316072,2846.3398436819084,1350.5157698134094,2486.1839780053783,1823.4150741313947,2239.040940298775,1296.8228528047362,3756.4544694718543,912.2246947257324,2046.1254304832632,502.1959141153841,2663.173886539064,1363.2738490390902,273.7982889155241,3601.761581451304,1767.9819091960137,2578.3282903079044,1240.3907771913746,1183.0107230926887,849.7859101073243,1196.6126724009578,964.0951287015318,1248.6373613437786,1363.2738490390902,2449.611686184793,2376.393048570885,2270.867394324104,1083.2418456808794,1384.4768790631406,984.3982682181028,1198.7236957027458,3417.820121620088,1329.5656817587153
2571.5208258826256,2887.5926343188166,848.6080851425461,2405.643160877789,3541.025163337171,60.6587340868723,2668.4940512006488,518.1445401415333,1700.7407807215573,2702.13292776692,1469.4632939074163,2243.306834460502,2892.2212841347355,1372.620747040378,2428.4812602219863,1795.8821651033818,2258.2686492567045,1265.6850494349806,3632.9913019877886,951.6306677988272,1975.9346021652327,557.2906936588583,2717.3467887270062,1377.5842322811093,294.8685852460128,3831.157199308899,1886.585280781008,2648.629222800416,1220.5980990956716,1098.0934160613706,794.1722778563362,1328.7382152580458,1108.2570000084452,1119.4652654493957,1377.5842322811093,2439.642551149329,2388.556637437669,2242.014614865864,1083.8598685639636,1359.2115255768626,954.8975713102644,1175.1477891438096,3359.558878436648,1405.4694211971987
2609.782968872746,3012.4415324601605,1024.9297383898015,2205.6394969041467,3638.624977880438,89.21520994449202,2681.9676434714697,588.354856933616,1778.3677086025186,2637.2895933164264,1627.5289216974584,2327.9296117355134,2940.5481440483445,1394.705417497305,2381.9148234716145,1780.5331981400618,2290.44435891307,1232.0794175625658,3394.1990527781154,1001.6357944731526,1902.132693888325,639.987074979286,2775.700870637382,1388.3563319515374,315.86819481672364,4018.615523793365,2006.393046706973,2686.816708049702,1198.4946879041054,981.6459197032796,734.0142384006901,1558.3279052333523,1242.4343433083443,988.2188765398172,1388.3563319515374,2414.628398837655,2396.076897085832,2230.564914870882,1082.7741338772787,1322.9522845755814,923.0525113191476,1167.727300276327,3257.041472500174,1485.5899548644236
2647.6041647024613,2947.858865860625,1279.7054419139367,2068.25938934659,3721.243323079755,145.69074767856227,2676.9226477237207,543.3065935764373,1850.230933778504,2575.960280632078,1787.117307420904,2412.947913446439,2993.558426307044,1413.6339961932365,2345.2372316018264,1769.2675360898463,2335.915160473493,1196.2910892841674,3044.8286245327254,1064.8937750874518,1828.3697928781028,745.873725146138,2838.0773460204423,1395.45021284529,337.13965563581473,4150.346451035728,2118.08330542802,2697.243876114965,1173.84392970574,851.5773148562321,673.1830184323292,1829.8528150222223,1357.9564717984629,872.0489840011651,1395.45021284529,2362.2097629825525,2402.7627019422903,2228.7341547148653,1079.0689887668382,1310.108246136188,889.1751659846227,1169.7112382011146,3120.659220538556,1569.73535039506
2685.918024417733,2848.8058024850334,1609.4886486267671,1996.942801843201,3784.5546579526335,235.3589820844179,2654.909930966375,497.4399817516435,1904.5477589382228,2529.0678607079817,1931.218382870161,2497.938677563391,3055.394673713208,1427.5015824507186,2315.8903119572924,1755.6202564516104,2391.216592235133,1158.6706352382134,2612.577918292888,1140.0515378917394,1762.9042438654403,864.1721635438109,2904.846271971188,1397.9235568159936,358.8008168563176,4223.98988663327,2213.160762539053,2688.775399879717,1146.663789653206,730.0344196787037,615.1471467373683,2082.096224336968,1449.700716858218,828.9756321910106,1397.9235568159936,2274.4973477514204,2410.932022178281,2229.547536748032,1072.4019806130234,1217.4800501275977,853.7140239910275,1174.3787017194927,2964.371213191673,1658.2233687866262
2725.808295568272,2719.52686108063,1988.473628196464,1984.7871322237177,3828.1319074127646,358.8527173586051,2619.376944868462,450.8735269367676,1928.591943117044,2500.83931361459,2046.184042997116,2581.9344193543466,3129.352992479978,1435.6118786142424,2291.057983565262,1736.9483367398598,2450.8375934974306,1118.4769534338411,2138.9294439652485,1221.9388088177666,1714.1913891602308,981.392095297593,2976.8269165891124,1390.898621122716,380.7789188878132,4247.48203394945,2285.941413853886,2671.776256908739,1117.1518264793428,633.7145062255206,561.9606240284604,2266.601741950052,1518.096318082571,777.0360225810123,1390.898621122716,2150.5697169062973,2420.6542361015454,2228.24797585748,1062.8864571291251,1094.961467980963,817.1209658378721,1176.4018368977531,2800.277501645269,1752.5025264247654
2768.254506093926,2569.733472595972,2377.840875205025,2017.7933048691136,3855.056358617999,510.9645745373396,2575.0272624841937,403.6464337418429,1915.96000740728,2490.088366872528,2124.8813709907304,2661.430862748852,3215.476913563844,1438.1707391495172,2268.4334461398225,1715.503914074829,2509.355801338681,1070.9829583694927,1667.7222193636449,1303.8796510592076,1686.3198425028004,1085.437466084226,3054.980536629936,1365.2409412440416,402.8798049941674,4235.349296582986,2334.5002824911285,2655.453796928948,1085.571877301168,569.0563431688984,513.9560945679432,2358.2914128931834,1569.4442170843754,768.936245578481,1365.2409412440416,1998.205208751976,2429.8398789087714,2222.747249231181,1050.9741137005567,954.940880570022,779.7037612623933,1172.5161512650243,2635.3091822082297,1855.4466048723573
2813.913808310036,2412.288435954932,2737.8995515773486,2080.214897121928,3870.5896945303857,682.1244539905342,2526.8216171899567,355.7399364178061,1867.53656177024,2492.342175198713,2167.275880817535,2729.87615659452,3310.5490588538014,1435.8699384911206,2246.5953043859963,1697.6379532735132,2563.023882642477,1007.3354358908616,1236.5128912051896,1380.8555869288325,1677.368929688931,1168.453618214115,3139.8872376838663,1313.7268753194212,424.8638270484098,4204.1510938696265,2360.585905657169,2646.1490659578826,1052.1772696944145,532.6467263936142,470.05754659639456,2358.793709697992,1613.777170649854,804.4450621054636,1313.7268753194212,1833.2399231579948,2435.37331703458,2213.3070212700704,1037.3150130759525,814.3580811010493,741.5012499876891,1161.562129916118,2470.878273942686,1970.576452021029
2863.069973215903,2260.5376438181856,3038.1454981860966,2159.225729785761,3880.562405061607,861.687406973756,2479.0506561935,307.20570765680964,1788.4781551028327,2501.9944809725466,2178.9037308627635,2779.7553897898874,3409.808334897468,1429.5258959840448,2225.0877417352403,1691.2518445924195,2610.490775904561,920.5767906975166,905.4958997741894,1451.6249651852609,1681.4730557389023,1227.1472233106576,3231.437847913647,1237.3360505405017,446.5078358233191,4168.062001859342,2368.627151442391,2646.8205427162616,1017.127123574916,514.888148581274,428.4349469864621,2293.285682963456,1661.221002374481,877.3989827189118,1237.3360505405017,1674.964875365938,2434.634722191241,2201.71902127202,1022.5165872477756,688.3446022203127,702.2802833933572,1144.041085430999,2304.656701783785,2100.3667639752675
2915.832815142553,2125.5194983101774,3261.985071635569,2246.334909885244,3890.009074275657,1038.9491242994002,2434.755400658801,258.30633749905087,1685.5882055565842,2514.000942032799,2168.394424213001,2805.6588368955468,3508.6377616107666,1419.8634820465463,2204.3004821905583,1702.6399547017952,2652.594429521175,811.7791051334618,619.0616728546479,1518.2574513200025,1692.3094274320852,1261.1476456255216,3328.815539914382,1145.2411691117295,467.6428570258784,4133.730240573697,2364.8828738619245,2657.5325562447106,980.4047727784202,504.8666441132011,387.6070397894223,2201.3530896015773,1719.271706562196,976.5578580414922,1145.2411691117295,1538.9516548298402,2427.019072170546,2190.3131486797224,1006.930225184301,586.7118906077619,661.7130885624788,1121.423773413154,2133.7271860931705,2244.0215625023025
2972.3157603503346,2013.5430728437177,3406.0496949723347,2335.8640767775373,3902.345179414859,1213.266736081369,2395.583015686175,209.5343660896008,1566.6853198533386,2524.9276174080646,2145.1985087013145,2806.278848757508,3602.974920876938,1407.424972602153,2185.1637105553864,1734.1510690887385,2691.516561559646,690.4706347468921,427.5986666952069,1583.66990879978,1705.2727870473573,1271.1558291316278,3429.759698860475,1050.3481951568797,488.1663983514272,4094.716471958624,2357.3364177721523,2676.514667005164,942.610470623206,494.5786331854295,348.46846924532224,2124.118506026173,1792.154701631349,1087.2613030128607,1050.3481951568797,1431.548557786247,2414.6993011655627,2181.178682961205,990.5927392525588,514.6270250286236,620.8279415989282,1095.4490763104748,1944.818423746072,2394.919782965136
3032.6432910546555,1925.30155379334,3477.156979702532,2422.6230689228664,3919.1421821606928,1376.7739028542114,2362.00234944979,162.2370343671687,1441.4893723351313,2533.297460828184,2118.179423851192,2784.631687754328,3688.841821998823,1392.537516765979,2168.730110387475,1783.466181817389,2729.8718870635867,571.6394507508296,327.51304139400213,1649.4738769332866,1717.4175446332183,1258.0151477062911,3529.364946328843,964.3850000841204,508.0348372001929,4031.1299297370806,2355.253804841629,2701.3074940741835,907.512909768541,481.2683408911976,316.2158509252372,2092.396977535798,1881.2905435806,1194.18433647456,964.3850000841204,1348.678322331678,2401.8009681634453,2175.7715109194864,973.3022839362968,475.33729876129337,585.4862478620589,1067.5915200675186,1773.0778919345585,2539.896158295787
3096.8931070280987,1857.7462182999243,3489.094629863256,2500.420675255158,3940.3834745339673,1526.759522567792,2333.6624704578403,121.1303504408479,1321.949020854574,2539.335095060218,2094.9975787366297,2746.9118714939177,3762.359017600719,1375.33496641285,2155.8331054108,1844.4370050558275,2770.0688671304906,472.37948320029705,304.5496122626155,1715.451627758006,1726.5244898367912,1222.5216438142593,3620.44824142282,894.5687418582145,527.2443675930949,3918.839570404473,2367.4300753121765,2729.575459164404,883.7479480996781,466.9634032898744,299.4649681689298,2120.5782928408744,1986.1411481345333,1284.6777695164076,894.5687418582145,1278.6182470855383,2392.534346864968,2174.806153889981,954.7907841154718,471.426650811281,567.1452372084784,1038.7606608415936,1614.7432708123606,2662.594917953644
3164.9996474009813,1807.6932711445293,3459.311099132601,2562.264014132527,3964.9527201060064,1661.445469917152,2309.7401292254453,96.38617733073806,1220.3188667099166,2544.374161972023,2081.484174680314,2700.653472879013,3820.64029536674,1355.8358833148816,2146.9712272556835,1908.960616023129,2813.9366782614225,408.542647834769,337.4002662906071,1780.1387455313477,1731.592239933255,1165.3771332170836,3695.898051497179,842.5450236199724,545.8089539684386,3743.070281003744,2399.747098965745,2759.498332662434,881.9532071706763,455.2753035030505,306.1033126531827,2145.802047265196,2105.666824018036,1351.2766355944182,842.5450236199724,1208.01815946434,2389.2352517950785,2178.3756482538333,934.8916309087484,503.9007349407652,576.9346942520842,1009.1732791851736,1483.6636647562225,2749.256900291053
3236.7635250504336,1774.6861606290236,3405.521077003305,2602.037619115766,3988.962647200704,1779.4341707037845,2289.2717350528706,101.12410426482074,1145.837798904867,2550.155938490572,2080.788219579404,2652.889328856306,3862.7630600730618,1334.007292625743,2142.588118720937,1929.8359002574907,2862.5713492709524,391.7972019771325,402.65555714389575,1841.6124267384853,1735.0044435796003,1087.8579086009695,3751.2021392303886,805.9307780769645,563.7416687767493,3507.1190270277984,2452.8810029283304,2789.9371509334496,909.0079404999378,447.72898466644233,338.96265131579366,2281.81576213651,2238.826864433446,1392.4608893950667,805.9307780769645,1128.7461874602873,2390.535911183183,2186.1695145156023,913.5429135794308,570.3659328825179,619.1691723402892,978.4602968952412,1389.591080303362,2793.205679599295
3312.137903612853,1761.9765750843646,3342.864412304394,2616.262779756199,3999.1690787796897,1879.6713767311976,2271.4390034671146,145.76908213408092,1102.278663629966,2558.187449532302,2093.3207476098137,2608.9238282431297,3890.0793237878697,1309.7714105919829,2143.7664768685786,1978.968958668414,2916.443317119878,427.4194096629778,479.4629774918205,1898.682490447752,1744.039839274414,993.6010423473252,3785.703193464168,782.204455278543,581.042857409255,3231.707402509373,2521.040344421965,2820.4742060689423,963.7235032940356,442.707745593772,394.2447859375768,2440.941787196681,2381.840955790368,1411.8785349572108,782.204455278543,1041.0434242577437,2390.0824710862025,2197.5883188891303,890.6451469105134,663.9210986005064,690.6511481492423,946.0645182865384,1334.7444102509155,2796.140496814047
3391.545398327864,1775.403494226627,3282.2050185589987,2604.74491689892,3968.688237645703,1962.4607635766097,2255.704790042268,234.07677229217256,1087.5351036028103,2569.3646076514724,2117.94327709607,2571.8607296928635,3905.7737532352194,1283.021349611725,2152.3657056558422,2019.3533236156684,2975.6449636395446,513.0692453457082,552.5468240905775,1952.805066441889,1769.7467652523137,889.6387203807544,3802.3705344145183,772.2916403611405,597.9567451623248,2946.8617866701834,2593.277470855427,2851.307098327035,1035.727127748917,437.4391225208215,463.12266447580646,2597.803058106465,2524.714958158433,1417.077286347998,772.2916403611405,951.519522364785,2376.730369472042,2211.86144240196,865.9357453451555,774.2814634012454,783.7528569724152,911.6584703989764,1313.8469870767494,2766.650706139066
3475.850904379593,1820.5840213281967,3229.719980760786,2570.141568629157,3866.230690332918,2030.9690126146515,2241.81107480688,362.6821189685061,1095.0096656842347,2583.913235547431,2153.052065843944,2542.671337187535,3913.960910211642,1253.6888135267743,2117.0752086523385,2057.8148050938453,3040.006739196856,639.374627243863,614.2243918399154,2008.1134616285287,1822.5283020855204,784.9956554437153,3806.544322980203,780.9589770024777,616.2397891159089,2681.53875868809,2657.329521325668,2883.026380473184,1108.14485928908,432.4310960749549,534.9939365987736,2728.8906069049403,2652.1250046358964,1418.531188380781,780.9589770024777,868.7486976096352,2337.063302531556,2228.2802035031955,839.033037797738,891.0177954031158,889.3719772753157,875.2982874713816,1316.4817648770495,2717.174572702014
3565.954040714906,1900.114308925061,3187.484785882501,2517.171790022881,3673.4033402818,2091.8567575821344,2229.756582561642,523.4277225238943,1115.9489471304023,2601.470710429675,2195.899363854939,2520.647867924672,3918.70232343598,1221.8022572649434,2168.9728081086387,2108.119697165879,3109.135165815974,792.3530072653036,667.9368826564478,2067.7715591473448,2101.6984817784933,688.1369763673647,3804.308726504392,814.4518192552421,641.2256141068458,2455.532521330819,2703.703935698328,2916.3362186654867,1163.9756320126162,437.3078513170528,600.5977593302812,2818.1272637784614,2748.484135199436,1428.3254269982958,814.4518192552421,799.4086704750982,2259.917230191587,2228.844751799992,809.6967457921808,1007.290158743108,998.5633721725465,837.3450040923137,1330.4158967112537,2660.5657903702795
3662.25309086466,2011.74805385753,3154.4416849466616,2451.913689525766,3394.852717027225,2154.1899688302465,2219.7612979415894,706.3002866960944,1141.719487575128,2621.290916205744,2240.6424606818728,2504.0848556284973,3923.241693248719,1187.468858239033,2285.5980575900667,2188.445570296815,3182.583287310077,956.8488666502894,731.5136963071925,2130.6366871675245,2214.1924508411785,605.5526056094407,3801.057010831111,877.2826281134862,682.3352314913554,2276.223122966874,2728.0200786432133,2951.817811873989,1193.1192334122477,470.04345694179847,654.2226835560668,2859.906520143536,2802.874152983543,1457.601589360853,877.2826281134862,746.2492628069347,2140.809796023728,2245.271126186604,778.090213493191,1122.060668686002,1103.6540541643512,798.2897990256581,1344.6892385188123,2607.3229372359056
3764.1329457725774,2147.550539451189,3127.3925961770374,2380.8607240114293,3056.643714973302,2226.670792972893,2212.161453716484,900.5170616923695,1165.4158871052914,2642.7350547726387,2277.755408967973,2490.987834008391,3929.606943556815,1150.4588348883658,2491.221601393196,2316.886067607699,3260.0921169815897,1120.212004572794,833.0128106781276,2191.76409865182,2339.9379571536165,541.9030966009655,3800.581736698861,969.4406151438365,750.2237425524695,2140.7725083983514,2731.2225140603846,2989.793758055738,1195.8852857427414,545.2048100754325,694.5507120714763,2858.6336895679824,2816.57696731328,1513.1219493531885,969.4406151438365,707.9354711643364,1984.2968761480704,2259.198412744483,744.7796174333862,1239.006228211634,1199.649055993309,758.5395522910271,1351.5898763279158,2564.105723013616
3869.290920579181,2294.630110946396,3102.3371005389376,2309.086401752665,2697.411758335991,2314.251393587699,2207.2733167588776,1093.8033097918078,1245.6356221649294,2665.732885060108,2296.756228133731,2641.2075999931294,3938.58343280896,1109.2982539192333,2778.533146585941,2506.9467275062984,3341.7207740924896,1274.7884144907516,997.7678305351642,2245.2173078312035,2467.285103531346,500.4049801913907,3804.777188428656,1085.14467771563,851.7762896181575,2041.519925210894,2718.382457678621,3030.258069783933,1181.5645899763745,663.1268297905663,723.7421493124057,2825.5969669991164,2793.511118213871,1595.737854552426,1085.14467771563,680.2195113935172,1803.768022758294,2269.0100709524736,710.9826014792777,1362.279352235485,1285.5511385528955,718.2464732127887,1347.2577003351084,2533.53059363519
3973.042703855736,2437.5230463591665,3076.18942694464,2237.841196993232,2357.133175819632,2416.0271469807467,2205.311507231386,1272.0280897954392,1274.4167392981935,2690.6831437795986,2290.9815920565616,2617.1880585928247,3949.963257798003,1061.2961664368686,3108.823470052991,2762.803665338892,3427.7434708371884,1417.8538068458397,1235.035503191806,2286.7133610828027,2588.8809484805715,482.2623389040871,3813.852957958122,1213.9123573877332,985.8633336736966,1970.696447707824,2696.9214827807023,3072.928431239603,1163.9961048224468,809.9451399557108,745.7203163869483,2774.865874658789,2758.436215876585,1683.1931629335986,1213.9123573877332,657.7429636099814,1618.8314968641146,2275.3426558465294,680.095883570978,1492.1119394356217,1364.9426464876224,677.3252986599123,1331.2644565003052,2545.6856711366004
4068.607333073895,2561.377181726609,3047.900536933549,2163.221344132628,2067.077691594785,2525.148678469176,2206.35977882072,1420.541893597514,1337.212863644493,2717.985117584956,2260.6875093240265,2593.1247346759883,3962.9330895458006,1004.4266424543232,3429.662834400447,3073.304129865299,3518.057910697444,1549.8197193071287,1531.9747398622908,2315.020962561452,2702.006837141281,485.4888421110718,3826.857446280616,1343.4751202233329,1142.2680726936494,1922.3999503946789,2674.7197126435503,3117.444712373188,1157.1615600144955,964.49429359919,765.329340125669,2719.655168142876,2733.411950287974,1755.1361750875003,1343.4751202233329,635.6791031214502,1451.059433595746,2280.883386584968,659.3041328744084,1623.3653936151857,1445.1896509470446,635.6192355888118,1305.6211937205098,2512.790359516511
4148.92332815537,2655.2840048701555,3018.318713899704,2078.178789913989,1843.663054077781,2630.273490929969,2210.3498099733174,1527.1036389377075,1453.818537845583,2747.727922340348,2212.4604131402966,2569.2866100861465,3976.469616561767,939.151164219594,3694.521408952848,3408.8375468786394,3610.7754496600414,1672.8875626499284,1855.821866051533,2331.953664970122,2805.567518297282,504.6896442947591,3842.2941639574647,1465.4425300053283,1304.2618335149843,1892.3785983156904,2658.346947307401,3163.58379871408,1172.1269465626892,1106.201157973003,788.4077738370834,2669.854954127933,2729.904443556523,1796.9358490277073,1465.4425300053283,610.6408928867304,1319.4107546771547,2289.1305787507263,658.256040372064,1747.333032560676,1535.0913299073836,593.0355986236841,1273.5045451097908,2422.55490286556
4208.998546567995,2715.058888281122,2989.272830027992,1978.5852408069445,1687.4866578536244,2718.534240178164,2217.09543116409,1585.4914510876963,1621.033512104927,2779.653773966236,2156.223195504362,2546.257394971844,3989.649512274968,868.3988069009577,3875.680934401199,3727.497900446947,3700.89475256974,1790.9037803484107,2161.668709876972,2341.4268437978853,2897.3484606639645,532.7702211327648,3858.65801260497,1584.2107756728574,1453.415177733185,1876.968665402703,2651.6993189863706,3211.444573939128,1214.7373424847851,1221.4453026495926,821.0919256411373,2630.9759819360424,2746.351226449677,1804.3214887670665,1584.2107756728574,580.8564466723819,1236.360927486553,2303.179870873485,685.1262604651492,1855.2158833446936,1642.0643507110242,550.0548848910742,1238.046741493258,2247.2291445376204
4247.388815001059,2744.171061823208,2962.63692427196,1868.7469149095573,1586.476537668009,2779.239144951669,2226.407690017757,1597.6991775977813,1813.7418957531668,2813.2889221507003,2101.889528067314,2524.6617776268367,4001.830044918226,796.2165728772684,3968.038018431234,3988.477224844353,3780.95167504497,1909.5643841003464,2402.8263779953586,2348.165570725245,2974.5134934206294,563.6150666836998,3874.792090832788,1719.005089934043,1571.8222089956962,1872.45394994424,2655.5333544389696,3261.5098383084355,1284.2054650332634,1307.032068989048,867.8395569397323,2604.393080530876,2772.537350944844,1782.230025270667,1719.005089934043,546.8143366440097,1205.8488436693583,2324.991795356672,743.606105506723,1941.5068330808767,1770.1891306211608,509.1837741092206,1201.5782137150964,1999.1746051888588
4266.282679773703,2751.7097583155823,2939.742036222256,1760.449394758567,1520.8682712556229,2806.472127528143,2238.182483171403,1572.6748583656045,1998.6590619061587,2848.1649744522115,2056.8982876026344,2505.00077974078,4012.700939085641,726.186155440809,3985.41727160942,4163.605360914436,3843.4153228182126,2035.964435061057,2540.913561460882,2356.491503046759,3036.406284564663,593.9131187764619,3890.040064087285,1890.6743397184457,1638.31185503011,1875.3631248231047,2668.0919460560435,3314.4210063859728,1373.9477973719845,1370.468459244401,930.0699540541352,2588.4334296624293,2795.795897082197,1740.9344237437267,1890.6743397184457,513.86606159487,1223.9231391822896,2355.234247558956,832.2524868117646,2005.6032845588463,1919.7910422381003,475.70616787881954,1165.4282663795225,1724.9221414237215
4270.481800379559,2748.076823839912,2921.1559896917347,1666.8985839253228,1469.0662819573076,2800.1429122565373,2252.35053853992,1522.7154958831452,2148.376912556037,2884.0404226421783,2025.099102508572,2487.604628086283,4022.2383275522175,660.3480763538562,3952.745293263881,4241.785446231874,3882.240141102669,2177.0690997077763,2553.4185438637314,2369.483480011676,3086.479012863489,623.2982731242837,3904.2258846258783,2105.6100439927936,1629.3679660718476,1882.9759636889348,2686.3572909173263,3370.624211558408,1475.5903892997226,1427.380870119469,1006.6009769515856,2579.793999794465,2806.063286530201,1691.8484996906077,2105.6100439927936,494.65321189458746,1281.3750127577114,2393.500726396862,945.00801807611,2051.2541975337776,2088.7060676586584,487.6783625676894,1130.0466881865705,1477.3533772149972
4265.352648977998,2740.9153158931504,2906.725614024308,1597.2025437476318,1414.6094496962808,2765.964119942921,2268.801408387036,1460.4028763150625,2249.677565027455,2921.021809048681,2006.886018390754,2472.6382013768675,4030.604751195776,599.0225335530831,3897.495985831047,4227.6302388115055,3892.612740546106,2337.418677041899,2437.41929226458,2388.616922819453,3132.172284306227,653.206486495694,3917.523427425712,2351.126329248773,1533.5473702094137,1892.8635964148168,2707.3149792239897,3430.200235778844,1584.405794569254,1496.5151411579204,1094.698229379596,2574.8936672007103,2798.528666237783,1644.3545358190509,2351.126329248773,507.1917615041921,1366.7032222338912,2438.660989371463,1072.4159860531909,2085.1674583642134,2273.885511664267,602.5633551693611,1095.2104655866478,1290.6046290209656
4252.8873836497705,2733.2591418089114,2895.7883274261167,1553.9861329729238,1351.938255798966,2714.024595169968,2287.535868033955,1396.7121151095716,2305.4900882083034,2959.5336857940465,2000.1374255105727,2460.11321101378,4038.0374942562994,541.3304618136219,3842.896483131928,4137.4406957018855,3870.799391490675,2516.143747944758,2210.042659826417,2413.916805198952,3183.882610862534,685.5734079333988,3930.284324122522,2600.719311290049,1364.1706823547586,1901.1272540922707,2728.8108541687498,3492.988003138231,1700.9293972537953,1592.869813424563,1190.7816580036974,2570.875461241621,2773.838979897716,1604.1184108447185,2600.719311290049,568.8200742411395,1468.325279173096,2489.3126904482424,1204.0689643778114,2115.624623928358,2470.2750115683243,858.2978352140578,1060.281709296194,1169.8773296033555
4226.964208278182,2723.802300347856,2887.436704630023,1533.807037011562,1286.833795475346,2655.9623890466714,2308.8543872740843,1339.7993048794451,2331.5822074816424,3000.189555333578,2001.4840597856305,2449.946085563065,4044.7562808844737,485.9051107839189,3804.109330733439,3994.1020417694895,3815.424072297171,2703.720438171103,1906.947134912932,2444.601548318452,3253.808641138877,722.3458356999099,3942.879696263268,2822.9647409737995,1155.5942424302366,1901.0041180522444,2749.824646745499,3558.8670870953183,1826.8116281577047,1720.6932361783702,1291.2051987508785,2566.0799181803827,2736.572727139204,1572.819953933663,2822.9647409737995,689.7912011603262,1575.921515346773,2544.258569245554,1331.7618912714213,2150.979004253729,2666.911936349331,1243.2048721901406,1024.500100256599,1097.4579205879716
4173.003353486732,2708.408770250504,2880.7513763544016,1529.2419724514884,1231.3576306152313,2601.9663930503275,2333.161982655615,1294.9446919518696,2348.4800024794563,3044.4152191469466,2007.53047753829,2442.048430260795,4050.906353873265,431.431530420524,3787.4448540794574,3821.6788860830334,3729.832959861119,2881.581517519822,1577.1130950626325,2479.7812097459705,3353.5935285978458,765.5502744869264,3955.589635220887,2990.9211205361007,949.1008229668176,1884.02863780364,2770.3070913166084,3627.955657236477,1960.2006491240245,1870.2619321277944,1393.0666854336073,2560.0268727870744,2693.061804997912,1548.9263541598118,2990.9211205361007,869.508152596871,1681.261780109603,2602.812951689304,1451.4551593070148,2198.183124948269,2845.690916648204,1699.5172710451543,987.2161775393148,1047.823242450001
4074.677061742051,2681.4671969918536,2875.0242123451862,1531.4734232318212,1197.256174557266,2558.8031119401726,2360.6186804140507,1265.367230111512,2371.8891574075183,3096.3320558148216,2015.7199690488887,2436.346150960611,4056.539055078141,376.8793996339921,3791.827777699107,3641.084639739489,3624.7375409748,3027.2272959815746,1271.9070755922694,2518.726495759631,3489.05485881565,817.2784096718001,3968.551474873437,3089.36194743789,779.2466991150754,1843.180481778548,2790.874389757802,3701.718648983912,2094.691473537533,2021.384788467489,1494.2072894662422,2553.1268912887526,2649.458637420208,1529.033976617217,3089.36194743789,1096.270820406709,1781.299149809365,2664.880916848892,1562.6979373575691,2261.590340419255,2986.2122363009144,2150.959677018939,948.0258836593104,1000.7124417580168
3922.849700329355,2635.787834964599,2869.952900343254,1532.5659008199536,1191.2582553509133,2529.192547038539,2391.0722146576704,1252.6402195728983,2407.470405830208,3162.905200708232,2024.6849907598007,2432.7621594812167,4059.664946685,321.564559720631,3810.3798751911504,3467.742700994495,3508.249062673166,3122.286865499631,1032.0454100751947,2561.3064630718213,3654.3807829370894,879.6013193457914,3981.759978514604,3117.4590784605657,665.8076916994637,1775.337895596368,2812.509283525488,3785.298480184483,2220.988213007869,2151.542376551251,1592.6357042337472,2546.272325427321,2610.4259023440923,1509.2974507412323,3117.4590784605657,1349.5193441725671,1885.6806441285696,2728.5187607863686,1666.237128374291,2341.941734974417,3073.1741445363377,2530.9885491272794,906.8548616448228,946.2058541276084
3720.6181731080414,2564.0652609624667,2865.690265505899,1526.941139801328,1213.425577876684,2512.3239314886305,2424.1887240766105,1256.6728550817256,2451.8918244669494,3249.903317552008,2034.149744993272,2431.269842962418,4049.338256943061,265.1830157999391,3829.742861907529,3310.901131684277,3382.7005435666106,3158.5904966044,878.8514429669272,2609.2574335483214,3831.673652903584,954.2452543200015,3995.102240038416,3086.6990593690416,612.4233599860465,1681.599897574899,2836.276275189305,3886.037849904205,2329.987526154979,2243.707584126837,1686.4795598540034,2540.399255363969,2578.5600828070733,1486.5369735849856,3086.6990593690416,1603.300682739132,2017.93702893064,2783.3581049146555,1761.909984639909,2435.2448918619807,3101.305602139354,2800.492166239066,863.9654504895464,883.4976887963221
3478.894237862929,2464.4008332069848,2862.6582752991626,1511.8706565303112,1258.1256127396632,2505.1261017050056,2459.552229036491,1276.2046828093269,2497.2231196377124,3357.514289267516,2044.564499587806,2431.9527545316064,3999.368675366001,208.2778941449276,3829.660492589129,3174.0794596947344,3186.2491152469893,3139.7190229671314,812.6740098413857,2666.362864415092,3997.2427822110417,1042.130021716008,4008.407367208332,3015.8418703900106,610.3463969256231,1566.3726080245244,2863.092369229066,3926.499793332181,2415.909841350475,2292.8584846002377,1774.327147395812,2536.206022613645,2554.499244604087,1458.817446204166,3015.8418703900106,1830.6694110944115,2200.0072636754508,2809.2831240127725,1848.1442956691903,2532.087876101462,3076.0802959824523,2952.3940740738763,819.7655303264817,817.164691945294
3202.117369638282,2344.36867148918,2861.220828401429,1487.1774077548862,1316.4584302590883,2503.762396168745,2496.747112212082,1309.695206942695,2535.3942973169624,3480.0510541667977,2056.682489391579,2434.933085443688,3874.388110956119,153.7243807525806,3788.28015840434,3056.4274255436653,2875.3953789272755,3078.4711800881023,817.3859079308561,2735.8008869614505,4130.085921232108,1143.8561416973942,4021.4940234800542,2925.316613337692,644.4965643055921,1436.8546566542784,2893.64836491405,4054.535138384681,2477.639005655069,2312.19691569459,1855.416050551133,2534.115547997665,2537.44424181586,1425.2631045441883,2925.316613337692,2009.012717567276,2433.8258899774496,2788.502492356632,1922.634717383126,2619.0942716448726,3010.978371540429,3005.88066259055,774.5235001828014,753.3403467327764
2882.68157971012,2218.79299119141,2861.494912287832,1454.492850896691,1378.955968472329,2504.820842810061,2535.4702484547392,1355.7314537710236,2561.1048836133887,3608.959657623427,2071.2457637055327,2440.2334648075603,3646.958167804233,107.51511902030074,3691.6140132131695,2954.54533714036,2453.466807160935,2992.2244996899017,868.789867516743,2817.2750500004377,4217.933950215998,1261.2847521315705,4034.205025209675,2832.774285964064,699.4907068399202,1302.977166854634,2928.4921754732195,4169.883588802096,2517.743603253444,2331.2092522954754,1930.043928594124,2534.354273270077,2525.8198691281664,1385.0672937549089,2832.774285964064,2125.141564896855,2697.9544394284885,2719.2003240855947,1983.0701496914253,2682.894603883845,2922.989423014579,2995.255648952135,728.2711519411007,696.9349132219756
2517.608744940589,2103.961920442624,2863.389704902717,1416.3357128315968,1437.7378478652329,2505.9694610356137,2575.589599606836,1413.4025967192956,2572.9795675223054,3736.134169579696,2088.830383024667,2447.7487714002286,3311.82536514375,76.75962712998307,3539.7128720068968,2864.148861877128,1972.7915068947973,2898.2494502877444,944.2036204149864,2906.8870217678555,4259.177729812544,1398.9164133238696,4046.389321772758,2750.437506402786,764.1550484990976,1176.2924915960452,2968.1011649534844,4249.418332860081,2540.312027330296,2379.9290383002863,2000.163112695715,2536.9919058278324,2517.926116742234,1336.9735286782477,2750.437506402786,2178.0337500534592,2958.0897746346727,2617.3448385483925,2027.234599357747,2714.454117216117,2828.1700654614733,2958.167759470823,680.9228612652432,650.0880632376109
2126.543613720138,2012.462502839429,2866.7016215764825,1375.2409445645503,1487.734823638789,2506.1465912081107,2617.128379824172,1483.6536905742246,2573.3661344884613,3855.465436422759,2109.8615046994764,2457.330131254012,2888.767247709256,66.7319606311487,3345.99421000877,2781.27222406046,1507.740696246281,2810.233812819618,1028.436171180924,2999.106863902123,4261.211139662526,1563.913226811792,4057.844711779048,2684.303008631256,833.3172740825578,1067.329289231759,3012.823915184277,4275.388105828492,2549.231189644237,2472.592341186293,2069.445158859756,2541.9228027349536,2512.4288001036225,1280.3627809470129,2684.303008631256,2177.9969677045046,3181.581870075349,2509.021721619692,2052.173170846076,2711.4632528576285,2738.6012690387724,2926.5485552375912,632.4291328930885,611.7189711922977
1749.676214563135,1950.4305864661533,2871.242856501476,1333.1639018704743,1526.9310003701112,2505.406484467354,2660.250663265389,1570.3223815024749,2567.110064301513,3962.253179193777,2134.6785208595443,2468.914614892873,2415.630912700128,79.49863788879588,3131.7883172125225,2702.997513806541,1125.05275983404,2736.503703389926,1113.5010568233656,3089.064021076014,4236.720915119694,1763.03562805683,4068.351830877009,2634.921458197571,906.819126357821,982.8228243482577,3062.884108342565,4239.581084039312,2547.672583825677,2604.125675372453,2142.5208917734385,2548.9014818237124,2508.5756419171403,1216.5914851325265,2634.921458197571,2142.830953753672,3348.670985633905,2419.988318417704,2053.3955874093426,2678.204324914034,2661.188293188536,2921.7053877455464,582.8515393241926,578.7585871689198
1431.7501536993886,1917.3818999665816,2877.0108818746007,1291.2524458537987,1555.7983031832273,2504.514547665872,2705.258420227148,1678.4153768722913,2559.787044915656,4052.108737851335,2163.46246222068,2482.6502406522595,1937.2461921422173,114.02814034962852,2919.554628217465,2627.7252756057906,864.4157915991536,2679.952682808605,1195.9802568170403,3174.0960826378832,4199.564273976042,1995.4018406803395,4077.4684260420295,2599.13612974421,987.535368793184,924.3046619281058,3118.698608092988,4143.793575229172,2538.2330947413707,2756.909597592054,2223.445634972909,2557.6596947551275,2506.175703685354,1148.8749118526816,2599.13612974421,2092.9031121261382,3456.6395996090023,2366.5140755025595,2026.9250035967443,2623.54079625182,2597.9831461493422,2953.083608889831,532.3568362680542,548.8064896966655
1205.9244537078755,1907.9194545029327,2884.237698424671,1249.8572306064516,1576.257143925229,2504.462226947229,2752.5645435062725,1809.9222488534845,2556.1092988048645,4121.152405497409,2196.126268834107,2498.861677267507,1494.7991260769095,167.2485119970588,2727.0511399294937,2554.9588937296444,732.7027120617422,2639.225359955723,1276.180645498249,3254.082816444472,4161.462420925472,2245.9930618303374,4083.275497349743,2572.06789517006,1080.0962783430218,888.4022969644677,3181.335781343128,3998.140152898283,2523.097893526218,2910.1861657189747,2313.2632732769466,2568.0036405910887,2505.421035804415,1081.0481300590775,2572.06789517006,2046.9658155852835,3516.4786440552107,2351.305198323105,1973.8060842073176,2558.0904119579886,2547.481581788662,3019.8246573433435,481.17838232330473,521.8835419581324
1084.6528236493723,1914.2871333280125,2893.295109603768,1208.6179063924208,1590.641998407128,2506.106588601928,2802.628370018864,1960.006869853892,2559.019815835988,4167.289312617871,2232.3611585167023,2517.862691680413,1118.1312444524126,235.763266284702,2563.8501702432527,2483.939888959656,709.3123969487056,2610.423506849459,1358.195128318781,3330.7716414439,4130.126511374285,2487.5279363027494,4080.2897956594265,2548.8288789707003,1190.151324708244,868.3938695376376,3252.4946152839384,3818.9614004546265,2504.4848142314336,3047.48541029478,2407.643224029629,2579.837725548663,2506.638166439433,1016.2860945568004,2548.8288789707003,2019.288844006076,3544.75666995536,2365.6582456140504,1902.185775452583,2491.593678858744,2506.303208018154,3114.4471898707934,429.5323200530463,499.9641196224616
1059.1362625969628,1928.7839058141328,2904.52241236042,1166.6800185892507,1601.035591424948,2510.004440100903,2855.884568137529,2116.1322059268623,2569.5326453991643,4191.187390590429,2271.7781189667503,2539.85551743318,822.934811902941,317.3989781617511,2431.0353342760723,2411.001756048302,757.6040119976594,2588.754411695637,1448.8455786890872,3406.7017252010146,4108.862052580002,2690.3293090406423,4058.296543190643,2525.702657080232,1323.1750041219125,856.3442979607621,3333.810370484559,3626.24406393422,2485.348737497774,3160.2653564675475,2497.123411874284,2593.142960358101,2510.1136649529262,956.2896628710992,2525.702657080232,2018.101474508324,3555.2493570197166,2394.817173495754,1825.4940964906,2431.115009039277,2470.680988659125,3226.802289574764,377.4731022766214,485.4078837652539
1105.1712355498423,1945.4304027126968,2918.0632226983885,1123.0946137114584,1608.9289157638889,2516.39311922402,2912.712784984947,2261.1106795187256,2587.083697728408,4195.512310044763,2313.9672831720222,2564.9679169400124,612.7675427956669,411.8189450108473,2323.258816047301,2329.053483873964,837.4241915886839,2569.8595154103264,1555.448580106172,3484.33241777301,4097.3042460746055,2832.821218957076,4009.939095336452,2500.6825442060904,1482.7833789873357,845.1370582214388,3425.758107384505,3439.467385894141,2469.5566244467927,3247.831451340639,2570.6139945760224,2607.963056315006,2516.051866244972,901.065664411008,2500.6825442060904,2045.5906589433416,3554.458316392296,2423.2233214171883,1759.536786832008,2380.362561903436,2437.4744464108635,3346.1269607101,324.8773775836189,479.6266914509672
1191.8344511557584,1960.7500276037424,2933.902229898158,1077.2063505795356,1615.046374333471,2525.267963899978,2973.4079696172284,2378.69004567248,2610.115687440995,4180.876477491452,2358.483160369106,2593.285492117136,482.539761298719,519.8952046680656,2231.717492829048,2231.8023108579528,914.9875021059296,2550.7179692088303,1686.950706391214,3565.687383696928,4092.761420682376,2907.274424338886,3911.703246470447,2473.4081065559744,1669.5457394758866,829.517634871107,3525.936024292648,3272.487432233849,2461.4831169138465,3314.2464550315653,2619.683730000701,2624.386116880299,2524.5852147971777,849.3041310684098,2473.4081065559744,2099.6056127326315,3542.277926028424,2438.4853485322724,1719.5798701459448,2340.049761106956,2404.697194017871,3461.368377663097,271.99558546682783,482.47831395829326
1289.7743123102944,1973.7520351928624,2952.0557429032624,1028.851068905652,1619.37739463833,2536.518812241519,3038.174548801985,2458.5713782052057,2636.6942908668657,4140.586794977968,2404.9154280621715,2624.8766170155486,421.0273537150854,642.2622643212542,2147.521020314254,2118.449879970176,968.3005955361068,2530.029275034934,1861.475618094301,3652.3057505157512,4091.657626637482,2919.859913961949,3765.145670807856,2444.7014401806628,1880.9510464422788,805.7727344084819,3627.244021479477,3129.739136248687,2465.3108353070847,3364.172739919503,2641.1193656173846,2642.4805798181064,2535.773639940287,799.1076999270247,2444.7014401806628,2176.7103715073413,3515.6868652204635,2433.945258565067,1717.34921920037,2308.848371891142,2371.5980588604803,3561.9003735008982,221.44506997539065,492.36970745370377
1376.968937913749,1985.3150042242287,2972.6852645817376,978.315126373586,1621.4154183665828,2550.05162876975,3107.257611887272,2498.680589133284,2665.0522143856506,4060.960546057004,2453.046664009054,2659.9156583981453,412.86654658130055,778.2205395457902,2064.7761101771625,1994.1329951582663,988.2259901503476,2508.056859903581,2105.926339499811,3744.872761487457,4090.7020893454383,2886.5906642836644,3575.4161686860816,2415.965664900376,2112.3872880574727,771.3884580107274,3717.946899514988,3005.660991714984,2483.272425237906,3400.4466485129806,2637.126015045749,2662.2283755231283,2549.6099880103243,748.6870876825549,2415.965664900376,2274.796396622363,3472.440870778809,2409.750797956136,1759.0008843592173,2284.461287876345,2338.4066213594497,3639.482201484642,181.48041521203183,506.8112334874684
1441.1370131363842,1997.3150317608424,2996.0623603070053,926.0950156116868,1620.4734350770452,2565.7910745315394,3181.082478989438,2504.530230772899,2693.979847462408,3929.092474417325,2503.0080712909257,2698.8156761250743,440.7999741212968,925.1114281163116,1982.0895080156088,1867.383273902661,976.2985039508584,2486.074826759566,2435.99622860674,3842.7001401925295,4087.597864575761,2827.594730380659,3356.809247675921,2388.667914304918,2358.7768615328946,725.8667036923841,3784.150917110551,2887.463587729093,2513.2571291393497,3424.1906595715845,2613.971349918796,2683.524031516881,2500.9939852814,696.8048502110739,2388.667914304918,2392.045118016124,3413.1958756238305,2372.3632242443023,1844.66423535101,2264.5317981886733,2305.950138882926,3690.184071949109,168.25641510662012,523.1126593041618
1479.173829005535,2011.8357747972125,3022.4684997808577,872.6467134550935,1615.9688789264496,2583.6043889892926,3260.219952588803,2486.4024440586613,2723.047322979815,3741.2274997135214,2555.336430061638,2742.1446912677943,488.1217121094405,1077.3948769222657,1901.5638839011103,1747.4904241379252,940.7431276811994,2465.691629890401,2836.311614489357,3944.492370718508,4081.2731085669184,2761.850521079324,3129.789077684091,2363.9862022364327,2616.14561576028,671.4731352593867,3813.228752630753,2759.904052144572,2548.410959440603,3436.0356507973647,2580.0207207310577,2706.2615006979413,2510.4590632468507,642.9504948269291,2363.9862022364327,2522.189990184625,3341.7902285451264,2332.7225445974045,1969.2500154592583,2247.2489639541145,2275.2843520540127,3714.9907184861167,204.29701738589824,538.9751885124974
1494.6766483835768,2030.9258096471249,3052.1954441532566,818.2758555021571,1608.5691524165766,2603.321821025957,3345.202561612836,2455.512450101201,2752.612539202537,3505.833167152121,2610.8098776342413,2790.3816679210886,540.8689440131559,1226.4270966659285,1825.7792658021333,1642.5194230983614,892.2230566378485,2448.3207767547115,3261.709268404791,4049.62354690511,4071.73814460993,2703.613129564604,2916.471272307409,2342.6198871412403,2818.361781925969,612.5516212888681,3797.429463796997,2610.68839471546,2579.730121865707,3437.135868632128,2543.645296338562,2730.449000154903,2522.3197198847683,587.2816402106955,2342.6198871412403,2651.550598504265,3264.060116995645,2303.157730642335,2124.037721105321,2231.597436585822,2247.401399332391,3718.928801647476,309.7847769259197,553.3012754410101
1494.785109000146,2057.093164328522,3085.5995981553806,763.1698577622915,1603.2112626670782,2624.869231485892,3436.2692977399893,2421.336178919066,2783.450126929314,3241.512298579819,2670.163948117299,2843.792637990108,589.1997247159161,1362.3141830854288,1754.6273550153714,1563.9447052066262,840.4857531276432,2434.873750608712,3653.8581319333775,4157.042271095287,4059.727375324124,2660.8519993409145,2735.753539433517,2324.8024170229287,3088.3199165507503,553.9062025623216,3736.940849434783,2434.22504193351,2599.618506357193,3429.552794103404,2511.4947385381047,2756.246791491379,2536.4124588965205,530.3800868508054,2324.8024170229287,2761.940382519177,3186.0854860630225,2293.074493816688,2297.6584447235145,2217.293405995777,2223.050391883224,3709.2773815650976,488.5720587997114,568.2030769981359
1487.3035375204818,2093.270688198768,3123.029896111764,707.490172256912,1610.719743643883,2648.315812789265,3529.7184605772054,2391.2863401756567,2816.182927494888,2972.003287803633,2733.8832156055223,2902.4787894200576,627.7450503991408,1477.003282371952,1684.6291224335498,1541.588386223344,792.4093104075746,2425.6360078212974,3959.3259574316808,4262.85120229747,4046.2843053263177,2635.4953743589367,2599.95258990632,2310.4374142330435,3357.3526473008696,499.3162977132142,3640.570169124034,2231.729863646701,2604.19445749911,3416.0694069593765,2487.5774768707856,2783.9314343610663,2552.7711564053748,473.8973206234093,2310.4374142330435,2837.101652682524,3112.7871016282934,2304.7663893626946,2475.540130504935,2204.5577132837134,2202.667304249516,3693.593205064474,720.9048181681762,591.6698233996106
1478.637639877467,2141.289746483186,3164.719425017708,651.3843875359423,1643.9597193740378,2673.746702936899,3608.748441022231,2370.970468681967,2850.9850279687203,2719.9449227184173,2802.0798471709827,2966.4834067501138,655.1124375669829,1567.023126590605,1612.3647765255848,1623.787746902046,751.3821885047716,2420.363544009183,4142.578259320601,4360.232726798012,4032.4092283595073,2624.9945852730275,2514.2566440681026,2299.20408375656,3614.693697320273,450.7226486057007,3523.2224032901217,2010.81457209372,2593.742386800357,3399.692588934416,2473.529278304494,2813.1198861786465,2571.5249256526195,423.567539502719,2299.20408375656,2868.044890882911,3047.237403341924,2331.8518516270115,2639.9202824886424,2193.86515718236,2186.3873777011177,3678.134276072774,970.316480623388,637.897655030368
1472.7201330508706,2200.444051729388,3210.820711935399,594.9122520109793,1711.7080962798582,2701.1371875861323,3642.958249054929,2363.5116518183268,2887.694291803517,2501.468977966556,2874.4869520231537,3035.931048961781,672.7834971640043,1634.9792480299666,1539.1620647375191,1844.1787363725623,717.6647332209757,2418.548780108797,4192.254122955983,4441.949005808969,4018.8343188261742,2624.476530829904,2478.0516806048886,2290.675349402898,3845.733934117514,408.1513554459043,3401.390760204442,1787.0246365662651,2571.798679395912,3383.114756738252,2470.122435372097,2840.263726463608,2592.7315011865053,391.8384080798746,2290.675349402898,2854.965243471308,2990.5880998077737,2361.672106260301,2772.98287626579,2185.7415640452828,2174.095378033965,3666.984367301831,1198.3972129617584,723.1703805898653
1470.8426432920264,2267.7129988930983,3261.568548671321,538.0600307033203,1815.7329656350305,2730.388636260396,3607.603229261903,2368.9130780286373,2926.509868537176,2323.9481505400813,2950.691317533084,3111.180022483266,683.7201379160176,1689.3462169295171,1472.0424130740478,2189.715915164071,689.9885983818822,2419.650719447128,4120.558193871244,4503.073707138152,4005.938517574842,2628.75475114009,2486.015798836204,2284.497173435763,4034.9682452674215,370.19605596305473,3288.8317460404905,1582.4469824039013,2543.5744186025013,3368.3249073004545,2478.379758940024,2856.6090937392173,2616.36856105994,395.2294012359257,2284.497173435763,2805.8517661463898,2942.432864728656,2380.3181726285543,2861.870513917919,2180.640692273628,2165.495874624579,3661.903890518104,1377.8666266531943,858.7460279869883
1472.162756247864,2339.0998759944773,3317.3543965016725,510.08574386155465,1951.948769480806,2761.449826074434,3503.327019287768,2384.550067216375,2969.2533552458967,2187.233284861523,3030.4889251294044,3192.8894576584507,691.0787568460678,1742.4163199919085,1420.3807329604483,2603.5761880550926,668.9264565643571,2423.2089580798824,3957.171471971322,4542.431002180769,3993.776576222722,2633.754895552917,2528.8934779387623,2280.505027702689,4170.304923454288,334.9580385546078,3193.8970562032623,1418.9099470325905,2514.376546674081,3356.4506826797974,2498.76538838454,2850.3098117816244,2642.389463996769,447.9523046320133,2280.505027702689,2733.1044184772,2901.409413123582,2377.376850555896,2902.204667737873,2178.886997403796,2160.207698854219,3662.7365968158592,1498.8899184221823,1044.7463470240994
1474.5866221411652,2411.021456270249,3378.670111963236,480.6896272407844,2113.497948207943,2782.4307037390217,3356.5217427977623,2406.4736428356086,3019.4278472219694,2086.60382402626,3114.011838124697,3281.4366268426875,697.3071598363108,1806.790193935327,1391.6163280932687,3011.4301885929344,659.8285594436761,2428.9052963746094,3740.139419489704,4562.509641898333,3982.1774018646033,2637.1945248584857,2595.823562323242,2278.719241417908,4246.859002876668,301.33438014924354,3118.4811146135107,1310.6090747287797,2488.4727031867897,3347.819509669266,2529.859028984716,2811.525541676404,2670.722662910149,557.1052527891941,2278.719241417908,2649.826317552771,2865.8172454495307,2348.232956916003,2898.3295791148166,2180.656700123409,2157.8517198540058,3668.112531823873,1568.1852325719829,1268.5454984023695
1475.7061793016346,2481.264053374822,3446.058326254154,519.0465209198837,2291.880589854952,2816.485909730054,3205.850634760669,2430.726191837627,3079.900445031705,2015.4667797497868,3201.630723892831,3375.155532169593,703.7184643830678,1891.6560584055408,1388.5630196937411,3348.501029698855,671.635140154629,2436.584098701034,3506.255740774602,4366.488135298721,3970.8648669568047,2638.558292611069,2678.202345323187,2279.270430328228,4268.559578536919,269.68966874183,3058.533415057207,1260.4240145188674,2468.516405280385,3342.1688267176296,2568.371850919746,2736.1987718853607,2701.2445489159954,720.7924031667842,2279.270430328228,2567.0385290695203,2834.1176618165737,2414.4261633899414,2860.673410035804,2185.9873433859,2158.1327672573493,3676.19338972267,1603.4352074537237,1508.3855192348392
1473.5254339678113,2549.340258899758,3413.2181622520484,657.4822091677572,2474.5881605916084,2852.6326751775005,3087.409326980376,2454.270126431821,3150.6268932638604,1966.700476946744,3293.893590406177,3468.759542292638,710.525694725849,2000.2099096280635,1408.9084839163193,3576.5678859104664,711.9587658461498,2446.2167504489807,3283.6924276905884,4364.162770751331,3958.950420333597,2638.581273509651,2771.6211460736777,2282.322714970875,4246.904361451143,241.0862005194822,3006.6579687130443,1260.5151006964024,2455.489709827767,3338.9158672360063,2610.256874338895,2626.393893896437,2733.828518918076,928.15748919308,2282.322714970875,2492.188961543928,2805.243312429183,2338.6290859698247,2802.2280238705,2194.844599445476,2160.923687680287,3684.455786050238,1626.0335115932355,1740.223121014687
1466.8370199945105,2616.24668653014,3492.121263304108,894.0692848909798,2643.607235832992,2891.22633421343,3024.8172931277686,2475.494288719773,3228.7263575494344,1932.575289239675,3391.397365539517,3554.146095606713,717.2018293332596,2128.398078966655,1446.4095969444777,3685.5370293499695,782.1689540227269,2457.8576988471723,3088.718938330748,4359.337537994622,3942.844495388311,2638.577717445444,2872.1287111507245,2288.02928893575,4197.40422980623,216.06435387436812,2956.184825511029,1295.9484378810553,2449.049403734162,3337.40821062339,2651.955804429901,2487.854720368271,2767.77398212412,1161.2549642955414,2288.02928893575,2428.814576625389,2778.622684559032,2241.9850391833425,2735.917830028009,2207.2170293634954,2166.27029939514,3686.899758774719,1654.367503036965,1944.4067531297785
1455.2905421898463,2683.822769953008,3572.203832628225,1193.988635983114,2778.476808837012,2932.768787803051,3025.841671243268,2494.2708639705406,3310.0842033586487,1904.3414289222044,3494.4954201860805,3623.328823121464,722.9210637400688,2264.9268946901257,1492.957079370793,3678.170521178428,874.9521321018453,2471.616512438172,2926.4075333647115,4355.859928798289,3914.011710918229,2639.936887980194,2968.4367076830977,2296.493048994996,4135.697704192113,194.196747283414,2904.626357501384,1349.4133923988188,2448.084452448355,3336.671256342822,2691.2684642451704,2327.121621006452,2799.396285131595,1474.8129098676895,2296.493048994996,2377.083744028828,2754.0012025065544,2124.4071064923883,2672.7716637559665,2223.1426921458747,2174.328886471032,3670.89428353297,1699.178920209746,2109.620325127685
1439.251513354217,2753.9777165729743,3646.816951459476,1508.6533064467094,2862.101410531185,2977.759831994504,3084.3090384078537,2511.598281319273,3390.978819935628,1872.99984674633,3602.7442439160072,3671.292242482257,726.881490057207,2393.577390778806,1540.692455011908,3551.498414181593,975.0755385708568,2492.1309567268763,2794.279665216236,4355.7350875968405,3859.792354306086,2643.862148429997,2968.592878696404,2307.7447304396587,4074.823486556028,174.46511990568888,2854.588774806696,1405.3776962501718,2451.254860573354,3333.87827728803,2727.66381619114,2150.5421836469345,2819.481137081018,1693.7079045092191,2307.7447304396587,2334.900162199004,2731.288865988047,1985.664167891199,2620.477467723243,2242.667209002293,2185.359574271404,3619.538344436645,1762.001320894512,2233.8368845447576
1419.4926773244947,2828.093392300932,3708.660331129015,1794.5154154606214,2885.6323693577924,3026.6114082010863,3185.027847917866,2528.216028481983,3469.1687478262293,1831.2655158626649,3713.71213271638,3697.3185635365217,728.485531735801,2497.974936308219,1459.560902297207,3295.031440533028,1063.355161904653,2540.2892735229893,2687.306118601108,4358.871096243791,3768.133244466641,2651.231605334173,3025.9605196442217,2321.761860234221,4023.5056452879135,156.11142897548848,2811.6850590286504,1452.767375809322,2457.385524782392,3322.3844094294154,2762.028424557904,1965.545970092434,2814.3666513982225,1879.861166506315,2321.761860234221,2299.225719265223,2710.4721688031973,1829.758699128004,2582.707698431388,2265.7666374163305,2199.7023743182544,3519.704737120809,1837.128953644888,2323.274684844097
1396.804726571941,2906.853738389472,3752.311931469392,2024.1125476926625,2850.1306272671827,3079.689796953077,3309.6567310185105,2541.7963302766734,3544.214276060808,1775.32623063174,3821.960795628524,3704.6664202549673,727.4253538936125,2566.584575951716,1494.3001696181475,2905.084905333799,1122.2090041444803,2653.402675604786,2601.838635800815,4361.738842891463,3633.966682676985,2663.745938953992,3088.538024567367,2338.835810150369,3985.52120184588,139.37271838093147,2780.744551483273,1485.882585968381,2465.751186823679,3291.813312637899,2796.031634013442,1782.1959865633248,2770.3338998836853,2024.0124267675285,2338.835810150369,2267.1898602446136,2691.541657162406,1668.015695211435,2559.45300798447,2292.2867524584653,2217.601753357852,3369.2484366393955,1916.4173062646944,2390.093450342016
1371.7171216273357,2990.4417201888214,3775.884829020516,2188.93809064899,2764.97752215387,3137.422773687523,3441.8659464653347,2546.0464644010262,3617.043770888377,1705.51356759973,3919.926239633592,3699.149813377532,723.6818292540106,2595.51702983397,1519.9309816062628,2398.636791107961,1139.690426591736,2859.525613242303,2537.0405805330647,4355.487023857988,3463.3155153763964,2687.1613962945507,3190.8831460734937,2360.4914382232646,3960.514882114508,125.43420201312256,2758.9607050830336,1503.8170228725205,2476.186156047828,3231.146730109839,2831.471527715881,1612.4853202778231,2677.43149993291,2124.7670861584584,2360.4914382232646,2236.708678776926,2674.491666542524,1517.3249562563983,2548.0612778363943,2321.9946903402188,2239.016819561648,3174.771331226017,1994.126731087193,2449.523221836191
1344.515263327624,3078.8436133496834,3781.238062520167,2296.175323938791,2644.38789654248,3200.335892545391,3570.3574089562694,2534.4825055053616,3689.296268078848,1625.6803747294948,4000.530906793812,3687.346527922127,717.4509378525047,2588.442352366716,1537.2731627285357,1817.313388058497,1110.6585910336478,3151.9045897921687,2494.642405347351,4327.008256179972,3271.912213784773,2731.638498159751,3346.513016970878,2389.578867933078,3945.655903591324,115.63713688023904,2725.602202870193,1509.0095638144903,2488.869630377185,3133.093518337316,2869.851187502042,1466.9042966867578,2530.929908579241,2188.5734594339324,2389.578867933078,2206.679619164873,2659.374244138799,1394.3494596614323,2544.5986548993687,2354.818432338798,2263.629875234893,2937.699235535579,2069.1188080959823,2517.3682501989138
1357.1067732372226,3171.8392791981137,3773.013889980997,2361.777846440707,2503.060150906558,3269.035018083904,3689.027950683721,2504.6129309084213,3762.944637515694,1541.396416635942,4051.088225296415,3675.043687521356,709.0318228750975,2554.5008729094893,1548.1735111708497,1221.5935626286982,1036.83957683701,3489.90703056376,2478.2001396843066,4264.535516625975,3079.4452454925868,2805.333400179837,3540.907103162032,2428.427948333956,3937.1423359156033,110.60735210452684,2643.6611463922736,1505.5289702596378,2503.968791212752,2997.481788005878,2912.161503504805,1350.1760101104862,2331.412987499856,2228.3908102329515,2428.427948333956,2176.8843424136776,2646.319957513708,1309.8914727567562,2545.287088779197,2391.244117007196,2291.0353918136866,2648.6477206149566,2248.8183530210217,2607.184960943346
1328.9762126306152,3268.702608338073,3757.106608916717,2402.4999852136298,2351.912388461271,3344.11398134876,3794.84745726991,2457.8396029060304,3840.024359455605,1457.704755136875,4032.3144353715743,3666.2702238515312,698.7454164380501,2505.491550479325,1554.7297426870728,679.0742197543518,927.0241916360858,3818.5701461671024,2492.215829517667,4163.8622101005085,2903.7584726928044,2907.8426415527806,3742.587240704788,2476.9279196218868,3931.191933173697,109.8304573858784,2483.318473447827,1497.5552426237723,2521.478890238652,2832.4487658095604,2958.7966509448315,1258.7946603860269,2084.684499843637,2260.512102271909,2476.9279196218868,2147.755303754098,2635.482234287904,1266.2355060593272,2547.559179424503,2451.1755342163897,2320.9360561318654,2305.27652226439,2329.882253099664,2725.167968597384
1299.3179841062292,3368.528446782567,3739.157896589725,2429.887965100109,2195.669331265974,3425.9304953400388,3885.3787830063848,2396.317569712673,3921.778922181789,1377.6150142586823,3878.0536500413327,3662.9981714642768,686.8998529979001,2453.0177127962043,1558.7243045045298,251.9393828948789,795.9105739233923,4089.408954539244,2541.383997523033,4030.429204782186,2757.5767375966707,3028.861222333413,3916.306189773464,2532.511800599905,3924.888342253046,111.85539743036792,2244.4998457457546,1488.3419029957597,2541.2764840383747,2652.8631662660337,3009.647965653633,1182.208658954071,1801.7013280694173,2300.751269467449,2532.511800599905,2120.185220689254,2626.9218165109023,1257.7109950164574,2550.260362581992,2493.626407370544,2353.25943382356,1930.293164830664,2417.3270310739977,2864.968085219421
